# OpenSignals Text File Format. Version 1
# {"98:D3:71:FE:38:C0": {"position": 0, "device": "bitalino_rev", "device name": "98:D3:71:FE:38:C0", "device connection": "BTH98:D3:71:FE:38:C0", "sampling rate": 1000, "resolution": [4, 1, 1, 1, 1, 10, 10], "firmware version": 1282, "comments": "", "keywords": "", "mode": 0, "sync interval": 2, "date": "2026-6-12", "time": "11:58:19.198", "channels": [1, 2], "sensor": ["EMGBITREV", "EMGBITREV"], "label": ["A1", "A2"], "column": ["nSeq", "I1", "I2", "O1", "O2", "A1", "A2"], "special": [{}, {}], "digital IO": [0, 0, 1, 1]}}
# EndOfHeader
0	0	0	0	0	508	515	
1	0	0	0	0	506	514	
2	0	0	0	0	502	511	
3	0	0	0	0	495	514	
4	0	0	0	0	500	516	
5	0	0	0	0	508	512	
6	0	0	0	0	502	514	
7	0	0	0	0	500	512	
8	0	0	0	0	507	510	
9	0	0	0	0	511	509	
10	0	0	0	0	512	512	
11	0	0	0	0	512	511	
12	0	0	0	0	509	509	
13	0	0	0	0	508	511	
14	0	0	0	0	510	510	
15	0	0	0	0	507	512	
0	0	0	0	0	504	511	
1	0	0	0	0	504	511	
2	0	0	0	0	503	512	
3	0	0	0	0	506	510	
4	0	0	0	0	504	512	
5	0	0	0	0	502	512	
6	0	0	0	0	500	512	
7	0	0	0	0	501	512	
8	0	0	0	0	504	514	
9	0	0	0	0	504	511	
10	0	0	0	0	503	513	
11	0	0	0	0	508	511	
12	0	0	0	0	508	512	
13	0	0	0	0	508	512	
14	0	0	0	0	514	513	
15	0	0	0	0	512	514	
0	0	0	0	0	504	511	
1	0	0	0	0	504	514	
2	0	0	0	0	504	511	
3	0	0	0	0	503	511	
4	0	0	0	0	504	511	
5	0	0	0	0	507	513	
6	0	0	0	0	504	512	
7	0	0	0	0	502	509	
8	0	0	0	0	503	511	
9	0	0	0	0	504	513	
10	0	0	0	0	508	511	
11	0	0	0	0	506	510	
12	0	0	0	0	505	514	
13	0	0	0	0	503	511	
14	0	0	0	0	503	512	
15	0	0	0	0	505	513	
0	0	0	0	0	505	512	
1	0	0	0	0	506	511	
2	0	0	0	0	502	515	
3	0	0	0	0	502	515	
4	0	0	0	0	507	513	
5	0	0	0	0	508	511	
6	0	0	0	0	507	513	
7	0	0	0	0	505	508	
8	0	0	0	0	504	507	
9	0	0	0	0	505	511	
10	0	0	0	0	509	512	
11	0	0	0	0	506	513	
12	0	0	0	0	506	514	
13	0	0	0	0	504	512	
14	0	0	0	0	506	511	
15	0	0	0	0	506	512	
0	0	0	0	0	507	512	
1	0	0	0	0	506	512	
2	0	0	0	0	508	513	
3	0	0	0	0	507	511	
4	0	0	0	0	508	511	
5	0	0	0	0	511	511	
6	0	0	0	0	508	511	
7	0	0	0	0	508	512	
8	0	0	0	0	507	510	
9	0	0	0	0	504	511	
10	0	0	0	0	512	512	
11	0	0	0	0	510	513	
12	0	0	0	0	502	510	
13	0	0	0	0	494	510	
14	0	0	0	0	482	512	
15	0	0	0	0	494	512	
0	0	0	0	0	503	512	
1	0	0	0	0	507	511	
2	0	0	0	0	508	512	
3	0	0	0	0	507	513	
4	0	0	0	0	507	512	
5	0	0	0	0	508	512	
6	0	0	0	0	510	511	
7	0	0	0	0	510	514	
8	0	0	0	0	509	514	
9	0	0	0	0	504	512	
10	0	0	0	0	506	511	
11	0	0	0	0	508	513	
12	0	0	0	0	510	512	
13	0	0	0	0	509	512	
14	0	0	0	0	508	514	
15	0	0	0	0	507	513	
0	0	0	0	0	506	513	
1	0	0	0	0	507	513	
2	0	0	0	0	498	511	
3	0	0	0	0	492	514	
4	0	0	0	0	512	512	
5	0	0	0	0	507	512	
6	0	0	0	0	504	508	
7	0	0	0	0	498	506	
8	0	0	0	0	504	509	
9	0	0	0	0	507	510	
10	0	0	0	0	504	513	
11	0	0	0	0	503	513	
12	0	0	0	0	509	511	
13	0	0	0	0	504	513	
14	0	0	0	0	504	513	
15	0	0	0	0	504	513	
0	0	0	0	0	505	514	
1	0	0	0	0	505	512	
2	0	0	0	0	504	512	
3	0	0	0	0	507	515	
4	0	0	0	0	510	513	
5	0	0	0	0	511	512	
6	0	0	0	0	508	511	
7	0	0	0	0	505	511	
8	0	0	0	0	505	512	
9	0	0	0	0	505	512	
10	0	0	0	0	507	512	
11	0	0	0	0	501	512	
12	0	0	0	0	502	511	
13	0	0	0	0	502	510	
14	0	0	0	0	504	512	
15	0	0	0	0	510	511	
0	0	0	0	0	512	512	
1	0	0	0	0	508	512	
2	0	0	0	0	506	510	
3	0	0	0	0	502	512	
4	0	0	0	0	499	512	
5	0	0	0	0	503	510	
6	0	0	0	0	510	507	
7	0	0	0	0	508	510	
8	0	0	0	0	505	511	
9	0	0	0	0	501	515	
10	0	0	0	0	502	514	
11	0	0	0	0	503	513	
12	0	0	0	0	507	512	
13	0	0	0	0	505	512	
14	0	0	0	0	501	513	
15	0	0	0	0	507	513	
0	0	0	0	0	513	512	
1	0	0	0	0	517	510	
2	0	0	0	0	509	513	
3	0	0	0	0	506	511	
4	0	0	0	0	503	511	
5	0	0	0	0	505	512	
6	0	0	0	0	507	512	
7	0	0	0	0	503	511	
8	0	0	0	0	504	511	
9	0	0	0	0	502	511	
10	0	0	0	0	500	513	
11	0	0	0	0	503	512	
12	0	0	0	0	503	511	
13	0	0	0	0	506	512	
14	0	0	0	0	505	512	
15	0	0	0	0	504	514	
0	0	0	0	0	504	511	
1	0	0	0	0	513	511	
2	0	0	0	0	510	510	
3	0	0	0	0	506	512	
4	0	0	0	0	507	510	
5	0	0	0	0	503	512	
6	0	0	0	0	502	511	
7	0	0	0	0	501	511	
8	0	0	0	0	502	513	
9	0	0	0	0	504	512	
10	0	0	0	0	511	510	
11	0	0	0	0	518	513	
12	0	0	0	0	505	514	
13	0	0	0	0	497	514	
14	0	0	0	0	496	510	
15	0	0	0	0	505	511	
0	0	0	0	0	514	512	
1	0	0	0	0	512	511	
2	0	0	0	0	506	508	
3	0	0	0	0	504	510	
4	0	0	0	0	504	511	
5	0	0	0	0	503	510	
6	0	0	0	0	503	512	
7	0	0	0	0	505	511	
8	0	0	0	0	507	512	
9	0	0	0	0	505	512	
10	0	0	0	0	502	513	
11	0	0	0	0	505	513	
12	0	0	0	0	508	513	
13	0	0	0	0	511	512	
14	0	0	0	0	510	512	
15	0	0	0	0	507	511	
0	0	0	0	0	502	515	
1	0	0	0	0	505	513	
2	0	0	0	0	504	512	
3	0	0	0	0	506	511	
4	0	0	0	0	511	511	
5	0	0	0	0	505	513	
6	0	0	0	0	493	511	
7	0	0	0	0	494	512	
8	0	0	0	0	501	511	
9	0	0	0	0	505	513	
10	0	0	0	0	504	511	
11	0	0	0	0	506	513	
12	0	0	0	0	507	512	
13	0	0	0	0	510	511	
14	0	0	0	0	511	510	
15	0	0	0	0	509	512	
0	0	0	0	0	506	512	
1	0	0	0	0	507	512	
2	0	0	0	0	505	513	
3	0	0	0	0	504	511	
4	0	0	0	0	504	513	
5	0	0	0	0	505	512	
6	0	0	0	0	504	512	
7	0	0	0	0	504	510	
8	0	0	0	0	503	511	
9	0	0	0	0	505	512	
10	0	0	0	0	505	511	
11	0	0	0	0	504	513	
12	0	0	0	0	504	512	
13	0	0	0	0	505	513	
14	0	0	0	0	507	513	
15	0	0	0	0	507	512	
0	0	0	0	0	507	511	
1	0	0	0	0	508	512	
2	0	0	0	0	505	511	
3	0	0	0	0	504	512	
4	0	0	0	0	507	511	
5	0	0	0	0	506	511	
6	0	0	0	0	504	511	
7	0	0	0	0	501	512	
8	0	0	0	0	504	510	
9	0	0	0	0	507	511	
10	0	0	0	0	510	513	
11	0	0	0	0	508	512	
12	0	0	0	0	507	512	
13	0	0	0	0	508	513	
14	0	0	0	0	506	511	
15	0	0	0	0	505	512	
0	0	0	0	0	504	511	
1	0	0	0	0	501	510	
2	0	0	0	0	499	512	
3	0	0	0	0	504	513	
4	0	0	0	0	505	510	
5	0	0	0	0	507	509	
6	0	0	0	0	507	512	
7	0	0	0	0	505	512	
8	0	0	0	0	507	512	
9	0	0	0	0	509	512	
10	0	0	0	0	509	514	
11	0	0	0	0	508	512	
12	0	0	0	0	502	513	
13	0	0	0	0	501	510	
14	0	0	0	0	505	511	
15	0	0	0	0	506	511	
0	0	0	0	0	505	511	
1	0	0	0	0	504	511	
2	0	0	0	0	504	514	
3	0	0	0	0	505	509	
4	0	0	0	0	507	512	
5	0	0	0	0	506	512	
6	0	0	0	0	505	511	
7	0	0	0	0	505	511	
8	0	0	0	0	505	511	
9	0	0	0	0	503	513	
10	0	0	0	0	507	513	
11	0	0	0	0	506	513	
12	0	0	0	0	504	511	
13	0	0	0	0	505	511	
14	0	0	0	0	507	512	
15	0	0	0	0	504	514	
0	0	0	0	0	504	514	
1	0	0	0	0	505	511	
2	0	0	0	0	503	512	
3	0	0	0	0	505	510	
4	0	0	0	0	507	511	
5	0	0	0	0	504	511	
6	0	0	0	0	503	513	
7	0	0	0	0	507	510	
8	0	0	0	0	507	512	
9	0	0	0	0	509	510	
10	0	0	0	0	508	511	
11	0	0	0	0	505	512	
12	0	0	0	0	504	511	
13	0	0	0	0	504	511	
14	0	0	0	0	504	513	
15	0	0	0	0	505	510	
0	0	0	0	0	509	513	
1	0	0	0	0	507	513	
2	0	0	0	0	506	513	
3	0	0	0	0	506	510	
4	0	0	0	0	504	511	
5	0	0	0	0	500	511	
6	0	0	0	0	503	511	
7	0	0	0	0	504	511	
8	0	0	0	0	504	512	
9	0	0	0	0	507	514	
10	0	0	0	0	511	511	
11	0	0	0	0	504	510	
12	0	0	0	0	505	511	
13	0	0	0	0	506	512	
14	0	0	0	0	506	511	
15	0	0	0	0	506	512	
0	0	0	0	0	504	512	
1	0	0	0	0	502	512	
2	0	0	0	0	499	513	
3	0	0	0	0	500	511	
4	0	0	0	0	504	511	
5	0	0	0	0	504	511	
6	0	0	0	0	504	512	
7	0	0	0	0	509	513	
8	0	0	0	0	515	513	
9	0	0	0	0	512	513	
10	0	0	0	0	515	514	
11	0	0	0	0	508	511	
12	0	0	0	0	504	510	
13	0	0	0	0	503	510	
14	0	0	0	0	499	512	
15	0	0	0	0	503	511	
0	0	0	0	0	503	511	
1	0	0	0	0	503	513	
2	0	0	0	0	513	515	
3	0	0	0	0	514	514	
4	0	0	0	0	508	512	
5	0	0	0	0	502	511	
6	0	0	0	0	499	513	
7	0	0	0	0	501	512	
8	0	0	0	0	504	511	
9	0	0	0	0	503	513	
10	0	0	0	0	506	513	
11	0	0	0	0	506	512	
12	0	0	0	0	507	511	
13	0	0	0	0	504	509	
14	0	0	0	0	504	512	
15	0	0	0	0	505	512	
0	0	0	0	0	505	512	
1	0	0	0	0	505	512	
2	0	0	0	0	509	511	
3	0	0	0	0	511	513	
4	0	0	0	0	506	512	
5	0	0	0	0	507	512	
6	0	0	0	0	506	513	
7	0	0	0	0	499	515	
8	0	0	0	0	496	513	
9	0	0	0	0	507	511	
10	0	0	0	0	512	513	
11	0	0	0	0	510	510	
12	0	0	0	0	502	510	
13	0	0	0	0	493	509	
14	0	0	0	0	494	511	
15	0	0	0	0	504	509	
0	0	0	0	0	506	511	
1	0	0	0	0	506	513	
2	0	0	0	0	510	513	
3	0	0	0	0	510	513	
4	0	0	0	0	509	511	
5	0	0	0	0	505	512	
6	0	0	0	0	504	511	
7	0	0	0	0	505	512	
8	0	0	0	0	505	513	
9	0	0	0	0	505	512	
10	0	0	0	0	508	513	
11	0	0	0	0	508	513	
12	0	0	0	0	508	511	
13	0	0	0	0	506	512	
14	0	0	0	0	507	512	
15	0	0	0	0	507	511	
0	0	0	0	0	505	511	
1	0	0	0	0	504	511	
2	0	0	0	0	504	512	
3	0	0	0	0	503	509	
4	0	0	0	0	504	512	
5	0	0	0	0	503	513	
6	0	0	0	0	503	512	
7	0	0	0	0	507	513	
8	0	0	0	0	508	513	
9	0	0	0	0	510	512	
10	0	0	0	0	508	513	
11	0	0	0	0	510	511	
12	0	0	0	0	512	512	
13	0	0	0	0	509	513	
14	0	0	0	0	507	513	
15	0	0	0	0	505	515	
0	0	0	0	0	501	513	
1	0	0	0	0	488	510	
2	0	0	0	0	492	508	
3	0	0	0	0	498	512	
4	0	0	0	0	502	508	
5	0	0	0	0	505	510	
6	0	0	0	0	513	512	
7	0	0	0	0	512	510	
8	0	0	0	0	510	512	
9	0	0	0	0	507	514	
10	0	0	0	0	508	512	
11	0	0	0	0	508	511	
12	0	0	0	0	500	513	
13	0	0	0	0	500	512	
14	0	0	0	0	501	514	
15	0	0	0	0	505	513	
0	0	0	0	0	505	513	
1	0	0	0	0	505	512	
2	0	0	0	0	504	514	
3	0	0	0	0	504	512	
4	0	0	0	0	505	511	
5	0	0	0	0	512	509	
6	0	0	0	0	508	510	
7	0	0	0	0	507	509	
8	0	0	0	0	504	512	
9	0	0	0	0	505	512	
10	0	0	0	0	507	509	
11	0	0	0	0	507	512	
12	0	0	0	0	510	512	
13	0	0	0	0	509	513	
14	0	0	0	0	507	510	
15	0	0	0	0	507	511	
0	0	0	0	0	505	511	
1	0	0	0	0	503	512	
2	0	0	0	0	499	513	
3	0	0	0	0	504	511	
4	0	0	0	0	507	512	
5	0	0	0	0	505	512	
6	0	0	0	0	504	511	
7	0	0	0	0	499	511	
8	0	0	0	0	500	512	
9	0	0	0	0	503	511	
10	0	0	0	0	500	512	
11	0	0	0	0	500	513	
12	0	0	0	0	511	512	
13	0	0	0	0	513	514	
14	0	0	0	0	514	513	
15	0	0	0	0	510	512	
0	0	0	0	0	507	514	
1	0	0	0	0	505	510	
2	0	0	0	0	504	513	
3	0	0	0	0	504	512	
4	0	0	0	0	499	513	
5	0	0	0	0	504	512	
6	0	0	0	0	505	511	
7	0	0	0	0	500	513	
8	0	0	0	0	503	513	
9	0	0	0	0	507	512	
10	0	0	0	0	507	513	
11	0	0	0	0	509	512	
12	0	0	0	0	508	511	
13	0	0	0	0	508	511	
14	0	0	0	0	507	511	
15	0	0	0	0	503	510	
0	0	0	0	0	504	511	
1	0	0	0	0	508	513	
2	0	0	0	0	507	511	
3	0	0	0	0	504	510	
4	0	0	0	0	502	511	
5	0	0	0	0	500	509	
6	0	0	0	0	508	510	
7	0	0	0	0	508	510	
8	0	0	0	0	504	513	
9	0	0	0	0	502	511	
10	0	0	0	0	501	511	
11	0	0	0	0	503	512	
12	0	0	0	0	504	511	
13	0	0	0	0	506	511	
14	0	0	0	0	513	513	
15	0	0	0	0	510	512	
0	0	0	0	0	506	511	
1	0	0	0	0	503	511	
2	0	0	0	0	504	513	
3	0	0	0	0	505	512	
4	0	0	0	0	504	513	
5	0	0	0	0	505	512	
6	0	0	0	0	508	513	
7	0	0	0	0	504	512	
8	0	0	0	0	505	512	
9	0	0	0	0	504	514	
10	0	0	0	0	505	511	
11	0	0	0	0	501	513	
12	0	0	0	0	501	511	
13	0	0	0	0	506	511	
14	0	0	0	0	508	511	
15	0	0	0	0	511	511	
0	0	0	0	0	508	512	
1	0	0	0	0	506	511	
2	0	0	0	0	507	510	
3	0	0	0	0	506	513	
4	0	0	0	0	506	512	
5	0	0	0	0	503	511	
6	0	0	0	0	505	512	
7	0	0	0	0	508	512	
8	0	0	0	0	510	509	
9	0	0	0	0	507	513	
10	0	0	0	0	503	511	
11	0	0	0	0	495	513	
12	0	0	0	0	495	513	
13	0	0	0	0	504	511	
14	0	0	0	0	511	509	
15	0	0	0	0	510	511	
0	0	0	0	0	504	513	
1	0	0	0	0	493	513	
2	0	0	0	0	496	512	
3	0	0	0	0	503	512	
4	0	0	0	0	509	514	
5	0	0	0	0	510	513	
6	0	0	0	0	510	510	
7	0	0	0	0	508	509	
8	0	0	0	0	511	511	
9	0	0	0	0	510	513	
10	0	0	0	0	509	511	
11	0	0	0	0	510	513	
12	0	0	0	0	506	511	
13	0	0	0	0	508	511	
14	0	0	0	0	504	514	
15	0	0	0	0	500	513	
0	0	0	0	0	499	512	
1	0	0	0	0	497	512	
2	0	0	0	0	507	511	
3	0	0	0	0	511	510	
4	0	0	0	0	508	513	
5	0	0	0	0	505	514	
6	0	0	0	0	504	515	
7	0	0	0	0	506	512	
8	0	0	0	0	504	513	
9	0	0	0	0	504	513	
10	0	0	0	0	504	511	
11	0	0	0	0	505	511	
12	0	0	0	0	503	513	
13	0	0	0	0	504	512	
14	0	0	0	0	508	512	
15	0	0	0	0	511	512	
0	0	0	0	0	512	511	
1	0	0	0	0	512	511	
2	0	0	0	0	508	511	
3	0	0	0	0	504	510	
4	0	0	0	0	504	512	
5	0	0	0	0	502	511	
6	0	0	0	0	504	511	
7	0	0	0	0	504	512	
8	0	0	0	0	502	512	
9	0	0	0	0	502	510	
10	0	0	0	0	501	511	
11	0	0	0	0	503	512	
12	0	0	0	0	512	510	
13	0	0	0	0	512	511	
14	0	0	0	0	505	513	
15	0	0	0	0	503	512	
0	0	0	0	0	505	513	
1	0	0	0	0	510	515	
2	0	0	0	0	502	510	
3	0	0	0	0	508	511	
4	0	0	0	0	515	512	
5	0	0	0	0	508	511	
6	0	0	0	0	506	511	
7	0	0	0	0	507	510	
8	0	0	0	0	506	510	
9	0	0	0	0	504	512	
10	0	0	0	0	501	512	
11	0	0	0	0	500	511	
12	0	0	0	0	500	513	
13	0	0	0	0	503	513	
14	0	0	0	0	503	512	
15	0	0	0	0	503	512	
0	0	0	0	0	502	510	
1	0	0	0	0	504	512	
2	0	0	0	0	506	513	
3	0	0	0	0	513	511	
4	0	0	0	0	506	513	
5	0	0	0	0	505	514	
6	0	0	0	0	510	513	
7	0	0	0	0	507	513	
8	0	0	0	0	504	513	
9	0	0	0	0	503	512	
10	0	0	0	0	504	514	
11	0	0	0	0	506	512	
12	0	0	0	0	505	511	
13	0	0	0	0	504	513	
14	0	0	0	0	505	511	
15	0	0	0	0	506	511	
0	0	0	0	0	505	513	
1	0	0	0	0	507	511	
2	0	0	0	0	505	512	
3	0	0	0	0	507	510	
4	0	0	0	0	506	509	
5	0	0	0	0	505	513	
6	0	0	0	0	503	512	
7	0	0	0	0	502	511	
8	0	0	0	0	504	514	
9	0	0	0	0	505	512	
10	0	0	0	0	505	511	
11	0	0	0	0	503	512	
12	0	0	0	0	504	512	
13	0	0	0	0	505	513	
14	0	0	0	0	505	512	
15	0	0	0	0	506	511	
0	0	0	0	0	508	512	
1	0	0	0	0	504	513	
2	0	0	0	0	505	512	
3	0	0	0	0	508	511	
4	0	0	0	0	506	511	
5	0	0	0	0	508	512	
6	0	0	0	0	508	511	
7	0	0	0	0	505	512	
8	0	0	0	0	505	513	
9	0	0	0	0	507	511	
10	0	0	0	0	509	510	
11	0	0	0	0	507	512	
12	0	0	0	0	507	512	
13	0	0	0	0	502	511	
14	0	0	0	0	497	510	
15	0	0	0	0	499	512	
0	0	0	0	0	504	512	
1	0	0	0	0	508	513	
2	0	0	0	0	510	510	
3	0	0	0	0	510	514	
4	0	0	0	0	508	513	
5	0	0	0	0	508	512	
6	0	0	0	0	504	511	
7	0	0	0	0	504	513	
8	0	0	0	0	506	511	
9	0	0	0	0	506	510	
10	0	0	0	0	506	511	
11	0	0	0	0	507	510	
12	0	0	0	0	506	512	
13	0	0	0	0	504	512	
14	0	0	0	0	504	514	
15	0	0	0	0	506	513	
0	0	0	0	0	502	511	
1	0	0	0	0	504	511	
2	0	0	0	0	505	512	
3	0	0	0	0	504	513	
4	0	0	0	0	505	511	
5	0	0	0	0	505	513	
6	0	0	0	0	510	512	
7	0	0	0	0	506	510	
8	0	0	0	0	505	512	
9	0	0	0	0	505	513	
10	0	0	0	0	504	512	
11	0	0	0	0	503	510	
12	0	0	0	0	501	511	
13	0	0	0	0	507	513	
14	0	0	0	0	506	511	
15	0	0	0	0	507	510	
0	0	0	0	0	507	512	
1	0	0	0	0	504	512	
2	0	0	0	0	503	512	
3	0	0	0	0	505	513	
4	0	0	0	0	508	511	
5	0	0	0	0	506	513	
6	0	0	0	0	505	512	
7	0	0	0	0	505	512	
8	0	0	0	0	506	511	
9	0	0	0	0	506	512	
10	0	0	0	0	511	512	
11	0	0	0	0	510	512	
12	0	0	0	0	505	513	
13	0	0	0	0	505	511	
14	0	0	0	0	507	509	
15	0	0	0	0	505	510	
0	0	0	0	0	504	511	
1	0	0	0	0	501	511	
2	0	0	0	0	504	512	
3	0	0	0	0	502	512	
4	0	0	0	0	500	510	
5	0	0	0	0	506	510	
6	0	0	0	0	519	512	
7	0	0	0	0	515	512	
8	0	0	0	0	511	515	
9	0	0	0	0	512	510	
10	0	0	0	0	501	511	
11	0	0	0	0	483	511	
12	0	0	0	0	488	511	
13	0	0	0	0	504	513	
14	0	0	0	0	508	513	
15	0	0	0	0	509	510	
0	0	0	0	0	512	513	
1	0	0	0	0	511	512	
2	0	0	0	0	511	512	
3	0	0	0	0	508	511	
4	0	0	0	0	504	512	
5	0	0	0	0	495	511	
6	0	0	0	0	495	512	
7	0	0	0	0	498	511	
8	0	0	0	0	504	511	
9	0	0	0	0	505	512	
10	0	0	0	0	504	512	
11	0	0	0	0	503	513	
12	0	0	0	0	506	511	
13	0	0	0	0	506	512	
14	0	0	0	0	513	511	
15	0	0	0	0	519	513	
0	0	0	0	0	510	511	
1	0	0	0	0	507	510	
2	0	0	0	0	505	512	
3	0	0	0	0	508	512	
4	0	0	0	0	508	513	
5	0	0	0	0	505	513	
6	0	0	0	0	503	513	
7	0	0	0	0	504	512	
8	0	0	0	0	504	513	
9	0	0	0	0	507	513	
10	0	0	0	0	501	511	
11	0	0	0	0	497	513	
12	0	0	0	0	509	512	
13	0	0	0	0	511	509	
14	0	0	0	0	511	511	
15	0	0	0	0	510	511	
0	0	0	0	0	504	510	
1	0	0	0	0	498	510	
2	0	0	0	0	500	508	
3	0	0	0	0	505	511	
4	0	0	0	0	504	512	
5	0	0	0	0	506	513	
6	0	0	0	0	507	511	
7	0	0	0	0	504	512	
8	0	0	0	0	506	512	
9	0	0	0	0	504	512	
10	0	0	0	0	506	511	
11	0	0	0	0	507	513	
12	0	0	0	0	507	513	
13	0	0	0	0	506	513	
14	0	0	0	0	506	513	
15	0	0	0	0	504	512	
0	0	0	0	0	503	512	
1	0	0	0	0	503	512	
2	0	0	0	0	507	511	
3	0	0	0	0	507	511	
4	0	0	0	0	510	511	
5	0	0	0	0	504	511	
6	0	0	0	0	504	512	
7	0	0	0	0	503	512	
8	0	0	0	0	505	514	
9	0	0	0	0	507	510	
10	0	0	0	0	510	513	
11	0	0	0	0	505	510	
12	0	0	0	0	505	511	
13	0	0	0	0	504	512	
14	0	0	0	0	505	511	
15	0	0	0	0	503	511	
0	0	0	0	0	504	511	
1	0	0	0	0	503	513	
2	0	0	0	0	506	513	
3	0	0	0	0	506	513	
4	0	0	0	0	505	511	
5	0	0	0	0	504	511	
6	0	0	0	0	505	512	
7	0	0	0	0	505	512	
8	0	0	0	0	505	511	
9	0	0	0	0	503	513	
10	0	0	0	0	508	511	
11	0	0	0	0	509	512	
12	0	0	0	0	508	512	
13	0	0	0	0	508	511	
14	0	0	0	0	505	513	
15	0	0	0	0	503	513	
0	0	0	0	0	505	513	
1	0	0	0	0	506	511	
2	0	0	0	0	508	512	
3	0	0	0	0	507	511	
4	0	0	0	0	505	511	
5	0	0	0	0	504	509	
6	0	0	0	0	504	511	
7	0	0	0	0	508	512	
8	0	0	0	0	504	510	
9	0	0	0	0	505	510	
10	0	0	0	0	505	511	
11	0	0	0	0	508	512	
12	0	0	0	0	505	511	
13	0	0	0	0	508	512	
14	0	0	0	0	509	510	
15	0	0	0	0	507	512	
0	0	0	0	0	503	515	
1	0	0	0	0	504	514	
2	0	0	0	0	504	513	
3	0	0	0	0	500	512	
4	0	0	0	0	502	511	
5	0	0	0	0	504	513	
6	0	0	0	0	510	512	
7	0	0	0	0	509	513	
8	0	0	0	0	505	512	
9	0	0	0	0	505	512	
10	0	0	0	0	505	513	
11	0	0	0	0	505	511	
12	0	0	0	0	503	512	
13	0	0	0	0	503	512	
14	0	0	0	0	507	513	
15	0	0	0	0	506	512	
0	0	0	0	0	504	512	
1	0	0	0	0	504	510	
2	0	0	0	0	502	511	
3	0	0	0	0	507	512	
4	0	0	0	0	507	510	
5	0	0	0	0	506	510	
6	0	0	0	0	504	511	
7	0	0	0	0	507	512	
8	0	0	0	0	505	511	
9	0	0	0	0	504	514	
10	0	0	0	0	508	514	
11	0	0	0	0	507	513	
12	0	0	0	0	504	512	
13	0	0	0	0	500	512	
14	0	0	0	0	504	511	
15	0	0	0	0	508	512	
0	0	0	0	0	502	512	
1	0	0	0	0	502	508	
2	0	0	0	0	504	510	
3	0	0	0	0	503	511	
4	0	0	0	0	503	512	
5	0	0	0	0	508	513	
6	0	0	0	0	511	513	
7	0	0	0	0	513	514	
8	0	0	0	0	507	513	
9	0	0	0	0	506	511	
10	0	0	0	0	506	513	
11	0	0	0	0	505	511	
12	0	0	0	0	503	511	
13	0	0	0	0	504	511	
14	0	0	0	0	506	512	
15	0	0	0	0	508	512	
0	0	0	0	0	507	512	
1	0	0	0	0	505	511	
2	0	0	0	0	504	512	
3	0	0	0	0	507	510	
4	0	0	0	0	505	512	
5	0	0	0	0	505	511	
6	0	0	0	0	507	511	
7	0	0	0	0	499	513	
8	0	0	0	0	498	511	
9	0	0	0	0	504	513	
10	0	0	0	0	511	511	
11	0	0	0	0	512	513	
12	0	0	0	0	506	512	
13	0	0	0	0	505	512	
14	0	0	0	0	505	512	
15	0	0	0	0	505	511	
0	0	0	0	0	505	513	
1	0	0	0	0	505	511	
2	0	0	0	0	506	511	
3	0	0	0	0	506	512	
4	0	0	0	0	504	513	
5	0	0	0	0	504	512	
6	0	0	0	0	506	510	
7	0	0	0	0	509	511	
8	0	0	0	0	505	511	
9	0	0	0	0	504	512	
10	0	0	0	0	505	512	
11	0	0	0	0	504	510	
12	0	0	0	0	504	512	
13	0	0	0	0	505	511	
14	0	0	0	0	505	512	
15	0	0	0	0	507	511	
0	0	0	0	0	504	512	
1	0	0	0	0	506	511	
2	0	0	0	0	507	511	
3	0	0	0	0	505	513	
4	0	0	0	0	505	513	
5	0	0	0	0	504	511	
6	0	0	0	0	506	510	
7	0	0	0	0	508	513	
8	0	0	0	0	515	511	
9	0	0	0	0	513	511	
10	0	0	0	0	509	511	
11	0	0	0	0	506	509	
12	0	0	0	0	500	511	
13	0	0	0	0	487	512	
14	0	0	0	0	496	512	
15	0	0	0	0	504	513	
0	0	0	0	0	508	512	
1	0	0	0	0	507	512	
2	0	0	0	0	500	513	
3	0	0	0	0	496	514	
4	0	0	0	0	496	512	
5	0	0	0	0	505	511	
6	0	0	0	0	508	512	
7	0	0	0	0	508	511	
8	0	0	0	0	507	510	
9	0	0	0	0	507	511	
10	0	0	0	0	505	510	
11	0	0	0	0	509	512	
12	0	0	0	0	511	511	
13	0	0	0	0	508	513	
14	0	0	0	0	504	512	
15	0	0	0	0	505	511	
0	0	0	0	0	508	512	
1	0	0	0	0	511	512	
2	0	0	0	0	510	513	
3	0	0	0	0	508	511	
4	0	0	0	0	503	512	
5	0	0	0	0	505	513	
6	0	0	0	0	504	512	
7	0	0	0	0	505	512	
8	0	0	0	0	506	511	
9	0	0	0	0	508	510	
10	0	0	0	0	504	514	
11	0	0	0	0	501	513	
12	0	0	0	0	508	512	
13	0	0	0	0	504	511	
14	0	0	0	0	504	511	
15	0	0	0	0	507	510	
0	0	0	0	0	506	512	
1	0	0	0	0	505	513	
2	0	0	0	0	506	514	
3	0	0	0	0	505	513	
4	0	0	0	0	504	513	
5	0	0	0	0	504	513	
6	0	0	0	0	505	511	
7	0	0	0	0	507	510	
8	0	0	0	0	505	509	
9	0	0	0	0	505	512	
10	0	0	0	0	505	511	
11	0	0	0	0	506	512	
12	0	0	0	0	505	511	
13	0	0	0	0	505	509	
14	0	0	0	0	505	511	
15	0	0	0	0	505	510	
0	0	0	0	0	506	510	
1	0	0	0	0	505	511	
2	0	0	0	0	501	512	
3	0	0	0	0	499	512	
4	0	0	0	0	503	512	
5	0	0	0	0	507	513	
6	0	0	0	0	512	512	
7	0	0	0	0	510	511	
8	0	0	0	0	505	512	
9	0	0	0	0	503	511	
10	0	0	0	0	503	512	
11	0	0	0	0	505	511	
12	0	0	0	0	505	513	
13	0	0	0	0	507	514	
14	0	0	0	0	505	511	
15	0	0	0	0	504	513	
0	0	0	0	0	507	515	
1	0	0	0	0	506	511	
2	0	0	0	0	506	511	
3	0	0	0	0	503	512	
4	0	0	0	0	505	512	
5	0	0	0	0	505	512	
6	0	0	0	0	507	511	
7	0	0	0	0	507	512	
8	0	0	0	0	503	512	
9	0	0	0	0	503	512	
10	0	0	0	0	507	514	
11	0	0	0	0	506	512	
12	0	0	0	0	505	511	
13	0	0	0	0	505	513	
14	0	0	0	0	508	512	
15	0	0	0	0	505	512	
0	0	0	0	0	504	512	
1	0	0	0	0	504	510	
2	0	0	0	0	503	511	
3	0	0	0	0	506	513	
4	0	0	0	0	504	512	
5	0	0	0	0	504	510	
6	0	0	0	0	504	511	
7	0	0	0	0	507	513	
8	0	0	0	0	507	512	
9	0	0	0	0	505	511	
10	0	0	0	0	506	513	
11	0	0	0	0	504	513	
12	0	0	0	0	505	513	
13	0	0	0	0	505	510	
14	0	0	0	0	504	510	
15	0	0	0	0	503	512	
0	0	0	0	0	503	514	
1	0	0	0	0	504	512	
2	0	0	0	0	505	511	
3	0	0	0	0	509	512	
4	0	0	0	0	510	514	
5	0	0	0	0	505	511	
6	0	0	0	0	506	512	
7	0	0	0	0	505	511	
8	0	0	0	0	504	510	
9	0	0	0	0	505	512	
10	0	0	0	0	506	512	
11	0	0	0	0	508	514	
12	0	0	0	0	508	511	
13	0	0	0	0	504	511	
14	0	0	0	0	507	509	
15	0	0	0	0	505	514	
0	0	0	0	0	504	512	
1	0	0	0	0	508	511	
2	0	0	0	0	507	509	
3	0	0	0	0	504	510	
4	0	0	0	0	505	511	
5	0	0	0	0	510	511	
6	0	0	0	0	504	512	
7	0	0	0	0	502	512	
8	0	0	0	0	506	512	
9	0	0	0	0	503	513	
10	0	0	0	0	503	512	
11	0	0	0	0	504	512	
12	0	0	0	0	505	513	
13	0	0	0	0	507	512	
14	0	0	0	0	503	512	
15	0	0	0	0	505	511	
0	0	0	0	0	505	511	
1	0	0	0	0	506	512	
2	0	0	0	0	506	512	
3	0	0	0	0	507	511	
4	0	0	0	0	508	510	
5	0	0	0	0	509	511	
6	0	0	0	0	504	512	
7	0	0	0	0	504	512	
8	0	0	0	0	503	510	
9	0	0	0	0	503	512	
10	0	0	0	0	500	514	
11	0	0	0	0	503	515	
12	0	0	0	0	505	511	
13	0	0	0	0	507	511	
14	0	0	0	0	506	511	
15	0	0	0	0	509	514	
0	0	0	0	0	508	510	
1	0	0	0	0	512	514	
2	0	0	0	0	505	513	
3	0	0	0	0	503	511	
4	0	0	0	0	504	512	
5	0	0	0	0	504	513	
6	0	0	0	0	501	512	
7	0	0	0	0	497	510	
8	0	0	0	0	502	510	
9	0	0	0	0	508	511	
10	0	0	0	0	507	511	
11	0	0	0	0	507	512	
12	0	0	0	0	510	512	
13	0	0	0	0	508	511	
14	0	0	0	0	512	511	
15	0	0	0	0	513	509	
0	0	0	0	0	507	510	
1	0	0	0	0	500	511	
2	0	0	0	0	502	512	
3	0	0	0	0	503	510	
4	0	0	0	0	504	512	
5	0	0	0	0	507	512	
6	0	0	0	0	509	513	
7	0	0	0	0	508	511	
8	0	0	0	0	511	513	
9	0	0	0	0	509	512	
10	0	0	0	0	506	510	
11	0	0	0	0	507	511	
12	0	0	0	0	506	509	
13	0	0	0	0	505	512	
14	0	0	0	0	501	513	
15	0	0	0	0	489	513	
0	0	0	0	0	487	511	
1	0	0	0	0	500	512	
2	0	0	0	0	510	511	
3	0	0	0	0	508	513	
4	0	0	0	0	509	512	
5	0	0	0	0	509	511	
6	0	0	0	0	511	513	
7	0	0	0	0	513	513	
8	0	0	0	0	509	511	
9	0	0	0	0	505	511	
10	0	0	0	0	499	513	
11	0	0	0	0	493	511	
12	0	0	0	0	501	512	
13	0	0	0	0	505	511	
14	0	0	0	0	504	512	
15	0	0	0	0	508	511	
0	0	0	0	0	509	513	
1	0	0	0	0	506	512	
2	0	0	0	0	505	513	
3	0	0	0	0	509	512	
4	0	0	0	0	512	510	
5	0	0	0	0	510	510	
6	0	0	0	0	508	512	
7	0	0	0	0	506	512	
8	0	0	0	0	511	512	
9	0	0	0	0	505	511	
10	0	0	0	0	506	512	
11	0	0	0	0	498	511	
12	0	0	0	0	497	513	
13	0	0	0	0	498	513	
14	0	0	0	0	500	515	
15	0	0	0	0	507	510	
0	0	0	0	0	505	512	
1	0	0	0	0	504	512	
2	0	0	0	0	506	511	
3	0	0	0	0	508	513	
4	0	0	0	0	509	512	
5	0	0	0	0	507	511	
6	0	0	0	0	507	512	
7	0	0	0	0	505	513	
8	0	0	0	0	505	511	
9	0	0	0	0	505	512	
10	0	0	0	0	506	512	
11	0	0	0	0	507	512	
12	0	0	0	0	504	512	
13	0	0	0	0	504	511	
14	0	0	0	0	503	511	
15	0	0	0	0	500	511	
0	0	0	0	0	501	511	
1	0	0	0	0	503	511	
2	0	0	0	0	507	513	
3	0	0	0	0	506	512	
4	0	0	0	0	512	512	
5	0	0	0	0	519	512	
6	0	0	0	0	518	515	
7	0	0	0	0	508	512	
8	0	0	0	0	499	513	
9	0	0	0	0	504	515	
10	0	0	0	0	499	514	
11	0	0	0	0	502	511	
12	0	0	0	0	504	512	
13	0	0	0	0	504	511	
14	0	0	0	0	506	511	
15	0	0	0	0	510	511	
0	0	0	0	0	510	512	
1	0	0	0	0	505	513	
2	0	0	0	0	504	512	
3	0	0	0	0	504	512	
4	0	0	0	0	502	511	
5	0	0	0	0	504	513	
6	0	0	0	0	504	511	
7	0	0	0	0	502	511	
8	0	0	0	0	501	511	
9	0	0	0	0	503	513	
10	0	0	0	0	504	513	
11	0	0	0	0	505	510	
12	0	0	0	0	503	511	
13	0	0	0	0	506	511	
14	0	0	0	0	506	510	
15	0	0	0	0	507	511	
0	0	0	0	0	509	515	
1	0	0	0	0	507	512	
2	0	0	0	0	504	510	
3	0	0	0	0	511	510	
4	0	0	0	0	512	512	
5	0	0	0	0	510	511	
6	0	0	0	0	505	513	
7	0	0	0	0	502	512	
8	0	0	0	0	504	508	
9	0	0	0	0	504	508	
10	0	0	0	0	504	510	
11	0	0	0	0	503	513	
12	0	0	0	0	505	513	
13	0	0	0	0	502	511	
14	0	0	0	0	502	512	
15	0	0	0	0	503	513	
0	0	0	0	0	506	514	
1	0	0	0	0	506	513	
2	0	0	0	0	507	512	
3	0	0	0	0	506	512	
4	0	0	0	0	511	510	
5	0	0	0	0	516	512	
6	0	0	0	0	511	512	
7	0	0	0	0	503	512	
8	0	0	0	0	491	512	
9	0	0	0	0	494	512	
10	0	0	0	0	499	512	
11	0	0	0	0	504	509	
12	0	0	0	0	507	511	
13	0	0	0	0	511	511	
14	0	0	0	0	508	511	
15	0	0	0	0	510	510	
0	0	0	0	0	511	510	
1	0	0	0	0	507	511	
2	0	0	0	0	508	511	
3	0	0	0	0	504	512	
4	0	0	0	0	500	512	
5	0	0	0	0	489	512	
6	0	0	0	0	495	511	
7	0	0	0	0	502	513	
8	0	0	0	0	505	513	
9	0	0	0	0	508	515	
10	0	0	0	0	519	513	
11	0	0	0	0	515	511	
12	0	0	0	0	508	512	
13	0	0	0	0	503	510	
14	0	0	0	0	504	512	
15	0	0	0	0	507	512	
0	0	0	0	0	504	511	
1	0	0	0	0	505	511	
2	0	0	0	0	506	511	
3	0	0	0	0	505	511	
4	0	0	0	0	506	512	
5	0	0	0	0	505	512	
6	0	0	0	0	505	512	
7	0	0	0	0	504	512	
8	0	0	0	0	506	513	
9	0	0	0	0	504	515	
10	0	0	0	0	505	511	
11	0	0	0	0	505	510	
12	0	0	0	0	504	512	
13	0	0	0	0	502	511	
14	0	0	0	0	504	512	
15	0	0	0	0	505	512	
0	0	0	0	0	507	510	
1	0	0	0	0	508	510	
2	0	0	0	0	507	510	
3	0	0	0	0	511	511	
4	0	0	0	0	506	512	
5	0	0	0	0	505	512	
6	0	0	0	0	507	511	
7	0	0	0	0	507	511	
8	0	0	0	0	505	512	
9	0	0	0	0	504	513	
10	0	0	0	0	506	512	
11	0	0	0	0	509	511	
12	0	0	0	0	509	511	
13	0	0	0	0	505	512	
14	0	0	0	0	501	513	
15	0	0	0	0	503	511	
0	0	0	0	0	494	511	
1	0	0	0	0	500	512	
2	0	0	0	0	504	514	
3	0	0	0	0	509	514	
4	0	0	0	0	503	511	
5	0	0	0	0	507	511	
6	0	0	0	0	508	511	
7	0	0	0	0	507	511	
8	0	0	0	0	509	513	
9	0	0	0	0	509	511	
10	0	0	0	0	508	513	
11	0	0	0	0	505	511	
12	0	0	0	0	506	514	
13	0	0	0	0	507	512	
14	0	0	0	0	504	510	
15	0	0	0	0	507	511	
0	0	0	0	0	506	512	
1	0	0	0	0	500	511	
2	0	0	0	0	499	512	
3	0	0	0	0	503	513	
4	0	0	0	0	503	513	
5	0	0	0	0	506	513	
6	0	0	0	0	508	511	
7	0	0	0	0	505	511	
8	0	0	0	0	505	509	
9	0	0	0	0	508	511	
10	0	0	0	0	508	511	
11	0	0	0	0	511	512	
12	0	0	0	0	507	510	
13	0	0	0	0	505	511	
14	0	0	0	0	502	511	
15	0	0	0	0	508	512	
0	0	0	0	0	510	513	
1	0	0	0	0	511	512	
2	0	0	0	0	506	513	
3	0	0	0	0	499	511	
4	0	0	0	0	502	510	
5	0	0	0	0	504	512	
6	0	0	0	0	503	510	
7	0	0	0	0	507	509	
8	0	0	0	0	504	513	
9	0	0	0	0	504	512	
10	0	0	0	0	507	512	
11	0	0	0	0	507	514	
12	0	0	0	0	504	511	
13	0	0	0	0	505	513	
14	0	0	0	0	506	512	
15	0	0	0	0	508	512	
0	0	0	0	0	507	512	
1	0	0	0	0	506	515	
2	0	0	0	0	504	511	
3	0	0	0	0	503	513	
4	0	0	0	0	508	513	
5	0	0	0	0	508	511	
6	0	0	0	0	509	511	
7	0	0	0	0	505	512	
8	0	0	0	0	507	511	
9	0	0	0	0	506	511	
10	0	0	0	0	502	511	
11	0	0	0	0	505	513	
12	0	0	0	0	512	513	
13	0	0	0	0	498	511	
14	0	0	0	0	489	513	
15	0	0	0	0	497	511	
0	0	0	0	0	504	511	
1	0	0	0	0	510	514	
2	0	0	0	0	510	511	
3	0	0	0	0	510	512	
4	0	0	0	0	513	511	
5	0	0	0	0	509	511	
6	0	0	0	0	497	511	
7	0	0	0	0	492	511	
8	0	0	0	0	493	510	
9	0	0	0	0	502	512	
10	0	0	0	0	507	512	
11	0	0	0	0	509	510	
12	0	0	0	0	509	512	
13	0	0	0	0	506	511	
14	0	0	0	0	505	511	
15	0	0	0	0	507	512	
0	0	0	0	0	508	512	
1	0	0	0	0	506	512	
2	0	0	0	0	508	512	
3	0	0	0	0	503	511	
4	0	0	0	0	506	512	
5	0	0	0	0	509	511	
6	0	0	0	0	508	510	
7	0	0	0	0	507	513	
8	0	0	0	0	504	513	
9	0	0	0	0	505	511	
10	0	0	0	0	508	512	
11	0	0	0	0	504	513	
12	0	0	0	0	503	513	
13	0	0	0	0	502	512	
14	0	0	0	0	510	514	
15	0	0	0	0	512	512	
0	0	0	0	0	510	512	
1	0	0	0	0	511	513	
2	0	0	0	0	503	510	
3	0	0	0	0	505	512	
4	0	0	0	0	504	511	
5	0	0	0	0	502	510	
6	0	0	0	0	505	508	
7	0	0	0	0	506	512	
8	0	0	0	0	508	512	
9	0	0	0	0	504	515	
10	0	0	0	0	498	513	
11	0	0	0	0	502	513	
12	0	0	0	0	506	512	
13	0	0	0	0	505	512	
14	0	0	0	0	504	511	
15	0	0	0	0	502	511	
0	0	0	0	0	508	510	
1	0	0	0	0	509	512	
2	0	0	0	0	510	514	
3	0	0	0	0	515	512	
4	0	0	0	0	510	509	
5	0	0	0	0	510	507	
6	0	0	0	0	506	512	
7	0	0	0	0	500	511	
8	0	0	0	0	500	513	
9	0	0	0	0	505	513	
10	0	0	0	0	506	514	
11	0	0	0	0	503	513	
12	0	0	0	0	504	512	
13	0	0	0	0	508	511	
14	0	0	0	0	508	512	
15	0	0	0	0	504	514	
0	0	0	0	0	502	511	
1	0	0	0	0	496	511	
2	0	0	0	0	502	511	
3	0	0	0	0	505	513	
4	0	0	0	0	507	510	
5	0	0	0	0	511	510	
6	0	0	0	0	505	510	
7	0	0	0	0	503	512	
8	0	0	0	0	501	510	
9	0	0	0	0	503	512	
10	0	0	0	0	508	513	
11	0	0	0	0	509	512	
12	0	0	0	0	507	509	
13	0	0	0	0	503	513	
14	0	0	0	0	504	514	
15	0	0	0	0	503	513	
0	0	0	0	0	505	511	
1	0	0	0	0	509	511	
2	0	0	0	0	508	510	
3	0	0	0	0	505	511	
4	0	0	0	0	505	510	
5	0	0	0	0	508	512	
6	0	0	0	0	508	513	
7	0	0	0	0	506	512	
8	0	0	0	0	504	512	
9	0	0	0	0	506	511	
10	0	0	0	0	508	511	
11	0	0	0	0	514	513	
12	0	0	0	0	512	512	
13	0	0	0	0	504	512	
14	0	0	0	0	490	511	
15	0	0	0	0	499	513	
0	0	0	0	0	510	513	
1	0	0	0	0	509	514	
2	0	0	0	0	505	512	
3	0	0	0	0	506	512	
4	0	0	0	0	511	512	
5	0	0	0	0	503	513	
6	0	0	0	0	491	513	
7	0	0	0	0	495	512	
8	0	0	0	0	505	512	
9	0	0	0	0	508	512	
10	0	0	0	0	508	511	
11	0	0	0	0	508	510	
12	0	0	0	0	507	510	
13	0	0	0	0	505	513	
14	0	0	0	0	505	511	
15	0	0	0	0	502	511	
0	0	0	0	0	502	511	
1	0	0	0	0	513	512	
2	0	0	0	0	515	511	
3	0	0	0	0	508	512	
4	0	0	0	0	503	512	
5	0	0	0	0	505	511	
6	0	0	0	0	506	514	
7	0	0	0	0	505	512	
8	0	0	0	0	504	512	
9	0	0	0	0	504	511	
10	0	0	0	0	506	511	
11	0	0	0	0	501	512	
12	0	0	0	0	498	512	
13	0	0	0	0	498	511	
14	0	0	0	0	502	511	
15	0	0	0	0	505	511	
0	0	0	0	0	506	513	
1	0	0	0	0	516	513	
2	0	0	0	0	512	512	
3	0	0	0	0	516	512	
4	0	0	0	0	509	511	
5	0	0	0	0	503	513	
6	0	0	0	0	503	511	
7	0	0	0	0	504	511	
8	0	0	0	0	503	511	
9	0	0	0	0	504	510	
10	0	0	0	0	505	511	
11	0	0	0	0	501	513	
12	0	0	0	0	504	514	
13	0	0	0	0	504	512	
14	0	0	0	0	501	512	
15	0	0	0	0	504	512	
0	0	0	0	0	507	512	
1	0	0	0	0	512	511	
2	0	0	0	0	506	511	
3	0	0	0	0	505	512	
4	0	0	0	0	505	512	
5	0	0	0	0	506	511	
6	0	0	0	0	509	510	
7	0	0	0	0	508	512	
8	0	0	0	0	505	511	
9	0	0	0	0	502	513	
10	0	0	0	0	503	512	
11	0	0	0	0	508	511	
12	0	0	0	0	504	512	
13	0	0	0	0	508	512	
14	0	0	0	0	507	513	
15	0	0	0	0	504	512	
0	0	0	0	0	504	511	
1	0	0	0	0	500	511	
2	0	0	0	0	505	512	
3	0	0	0	0	507	512	
4	0	0	0	0	507	510	
5	0	0	0	0	504	512	
6	0	0	0	0	503	512	
7	0	0	0	0	501	514	
8	0	0	0	0	504	513	
9	0	0	0	0	505	511	
10	0	0	0	0	504	512	
11	0	0	0	0	508	511	
12	0	0	0	0	508	511	
13	0	0	0	0	511	512	
14	0	0	0	0	506	510	
15	0	0	0	0	504	513	
0	0	0	0	0	508	511	
1	0	0	0	0	508	512	
2	0	0	0	0	504	510	
3	0	0	0	0	509	511	
4	0	0	0	0	502	512	
5	0	0	0	0	500	512	
6	0	0	0	0	504	512	
7	0	0	0	0	504	511	
8	0	0	0	0	504	512	
9	0	0	0	0	502	512	
10	0	0	0	0	501	512	
11	0	0	0	0	507	512	
12	0	0	0	0	510	513	
13	0	0	0	0	507	511	
14	0	0	0	0	507	511	
15	0	0	0	0	508	510	
0	0	0	0	0	508	512	
1	0	0	0	0	510	511	
2	0	0	0	0	504	511	
3	0	0	0	0	502	510	
4	0	0	0	0	501	513	
5	0	0	0	0	507	513	
6	0	0	0	0	509	511	
7	0	0	0	0	504	512	
8	0	0	0	0	499	510	
9	0	0	0	0	496	513	
10	0	0	0	0	501	511	
11	0	0	0	0	508	513	
12	0	0	0	0	510	511	
13	0	0	0	0	520	514	
14	0	0	0	0	516	512	
15	0	0	0	0	510	510	
0	0	0	0	0	509	511	
1	0	0	0	0	507	510	
2	0	0	0	0	506	512	
3	0	0	0	0	504	513	
4	0	0	0	0	507	512	
5	0	0	0	0	507	513	
6	0	0	0	0	504	511	
7	0	0	0	0	490	511	
8	0	0	0	0	479	513	
9	0	0	0	0	490	513	
10	0	0	0	0	501	511	
11	0	0	0	0	508	511	
12	0	0	0	0	510	510	
13	0	0	0	0	507	510	
14	0	0	0	0	508	509	
15	0	0	0	0	509	510	
0	0	0	0	0	506	513	
1	0	0	0	0	508	513	
2	0	0	0	0	501	512	
3	0	0	0	0	504	513	
4	0	0	0	0	506	514	
5	0	0	0	0	513	512	
6	0	0	0	0	508	510	
7	0	0	0	0	507	512	
8	0	0	0	0	510	511	
9	0	0	0	0	510	513	
10	0	0	0	0	506	514	
11	0	0	0	0	504	510	
12	0	0	0	0	507	512	
13	0	0	0	0	506	513	
14	0	0	0	0	505	510	
15	0	0	0	0	507	513	
0	0	0	0	0	505	509	
1	0	0	0	0	503	512	
2	0	0	0	0	505	512	
3	0	0	0	0	501	511	
4	0	0	0	0	499	512	
5	0	0	0	0	502	513	
6	0	0	0	0	506	512	
7	0	0	0	0	508	510	
8	0	0	0	0	507	511	
9	0	0	0	0	506	511	
10	0	0	0	0	510	512	
11	0	0	0	0	506	511	
12	0	0	0	0	502	511	
13	0	0	0	0	505	511	
14	0	0	0	0	504	510	
15	0	0	0	0	505	512	
0	0	0	0	0	507	513	
1	0	0	0	0	513	511	
2	0	0	0	0	511	509	
3	0	0	0	0	499	512	
4	0	0	0	0	500	512	
5	0	0	0	0	504	513	
6	0	0	0	0	504	511	
7	0	0	0	0	506	512	
8	0	0	0	0	507	513	
9	0	0	0	0	505	515	
10	0	0	0	0	504	513	
11	0	0	0	0	505	510	
12	0	0	0	0	504	512	
13	0	0	0	0	505	511	
14	0	0	0	0	504	512	
15	0	0	0	0	503	512	
0	0	0	0	0	505	512	
1	0	0	0	0	506	512	
2	0	0	0	0	507	511	
3	0	0	0	0	504	512	
4	0	0	0	0	503	512	
5	0	0	0	0	504	512	
6	0	0	0	0	506	512	
7	0	0	0	0	509	512	
8	0	0	0	0	510	510	
9	0	0	0	0	505	513	
10	0	0	0	0	505	513	
11	0	0	0	0	506	513	
12	0	0	0	0	504	511	
13	0	0	0	0	501	511	
14	0	0	0	0	504	512	
15	0	0	0	0	507	511	
0	0	0	0	0	508	512	
1	0	0	0	0	504	512	
2	0	0	0	0	508	513	
3	0	0	0	0	508	512	
4	0	0	0	0	506	512	
5	0	0	0	0	503	512	
6	0	0	0	0	501	513	
7	0	0	0	0	507	514	
8	0	0	0	0	504	511	
9	0	0	0	0	502	512	
10	0	0	0	0	500	513	
11	0	0	0	0	494	511	
12	0	0	0	0	495	510	
13	0	0	0	0	515	511	
14	0	0	0	0	515	511	
15	0	0	0	0	510	510	
0	0	0	0	0	509	509	
1	0	0	0	0	508	509	
2	0	0	0	0	505	512	
3	0	0	0	0	512	512	
4	0	0	0	0	511	513	
5	0	0	0	0	502	511	
6	0	0	0	0	502	512	
7	0	0	0	0	504	512	
8	0	0	0	0	505	511	
9	0	0	0	0	508	511	
10	0	0	0	0	509	512	
11	0	0	0	0	511	513	
12	0	0	0	0	508	512	
13	0	0	0	0	506	513	
14	0	0	0	0	505	512	
15	0	0	0	0	504	513	
0	0	0	0	0	492	510	
1	0	0	0	0	488	512	
2	0	0	0	0	496	512	
3	0	0	0	0	506	511	
4	0	0	0	0	506	511	
5	0	0	0	0	510	513	
6	0	0	0	0	511	513	
7	0	0	0	0	509	514	
8	0	0	0	0	514	515	
9	0	0	0	0	509	511	
10	0	0	0	0	508	512	
11	0	0	0	0	504	512	
12	0	0	0	0	500	513	
13	0	0	0	0	497	511	
14	0	0	0	0	503	513	
15	0	0	0	0	505	510	
0	0	0	0	0	504	511	
1	0	0	0	0	508	512	
2	0	0	0	0	509	511	
3	0	0	0	0	506	511	
4	0	0	0	0	503	511	
5	0	0	0	0	507	510	
6	0	0	0	0	510	512	
7	0	0	0	0	508	511	
8	0	0	0	0	505	511	
9	0	0	0	0	505	510	
10	0	0	0	0	505	511	
11	0	0	0	0	504	513	
12	0	0	0	0	507	514	
13	0	0	0	0	507	512	
14	0	0	0	0	505	512	
15	0	0	0	0	509	513	
0	0	0	0	0	510	512	
1	0	0	0	0	506	511	
2	0	0	0	0	504	511	
3	0	0	0	0	504	512	
4	0	0	0	0	503	513	
5	0	0	0	0	504	513	
6	0	0	0	0	503	510	
7	0	0	0	0	504	511	
8	0	0	0	0	506	512	
9	0	0	0	0	510	511	
10	0	0	0	0	506	511	
11	0	0	0	0	506	512	
12	0	0	0	0	505	511	
13	0	0	0	0	505	510	
14	0	0	0	0	504	513	
15	0	0	0	0	503	513	
0	0	0	0	0	504	513	
1	0	0	0	0	505	511	
2	0	0	0	0	508	515	
3	0	0	0	0	507	512	
4	0	0	0	0	504	511	
5	0	0	0	0	503	511	
6	0	0	0	0	505	513	
7	0	0	0	0	505	510	
8	0	0	0	0	506	509	
9	0	0	0	0	503	510	
10	0	0	0	0	503	510	
11	0	0	0	0	506	513	
12	0	0	0	0	509	512	
13	0	0	0	0	511	513	
14	0	0	0	0	509	510	
15	0	0	0	0	507	512	
0	0	0	0	0	506	512	
1	0	0	0	0	505	513	
2	0	0	0	0	503	509	
3	0	0	0	0	505	512	
4	0	0	0	0	505	511	
5	0	0	0	0	505	511	
6	0	0	0	0	504	512	
7	0	0	0	0	503	515	
8	0	0	0	0	504	514	
9	0	0	0	0	508	512	
10	0	0	0	0	504	511	
11	0	0	0	0	504	512	
12	0	0	0	0	504	513	
13	0	0	0	0	506	511	
14	0	0	0	0	506	512	
15	0	0	0	0	503	512	
0	0	0	0	0	505	512	
1	0	0	0	0	504	510	
2	0	0	0	0	509	512	
3	0	0	0	0	509	512	
4	0	0	0	0	505	514	
5	0	0	0	0	507	513	
6	0	0	0	0	508	513	
7	0	0	0	0	510	513	
8	0	0	0	0	512	512	
9	0	0	0	0	511	513	
10	0	0	0	0	515	514	
11	0	0	0	0	511	510	
12	0	0	0	0	508	511	
13	0	0	0	0	507	512	
14	0	0	0	0	492	510	
15	0	0	0	0	493	509	
0	0	0	0	0	487	509	
1	0	0	0	0	493	511	
2	0	0	0	0	492	512	
3	0	0	0	0	499	510	
4	0	0	0	0	512	510	
5	0	0	0	0	516	513	
6	0	0	0	0	511	510	
7	0	0	0	0	502	512	
8	0	0	0	0	501	512	
9	0	0	0	0	507	512	
10	0	0	0	0	511	512	
11	0	0	0	0	512	513	
12	0	0	0	0	506	514	
13	0	0	0	0	503	512	
14	0	0	0	0	504	512	
15	0	0	0	0	505	513	
0	0	0	0	0	504	512	
1	0	0	0	0	503	512	
2	0	0	0	0	504	511	
3	0	0	0	0	505	512	
4	0	0	0	0	509	510	
5	0	0	0	0	508	511	
6	0	0	0	0	506	512	
7	0	0	0	0	505	511	
8	0	0	0	0	505	511	
9	0	0	0	0	504	510	
10	0	0	0	0	505	510	
11	0	0	0	0	505	513	
12	0	0	0	0	508	512	
13	0	0	0	0	508	510	
14	0	0	0	0	507	512	
15	0	0	0	0	507	512	
0	0	0	0	0	508	511	
1	0	0	0	0	504	512	
2	0	0	0	0	503	511	
3	0	0	0	0	505	512	
4	0	0	0	0	507	510	
5	0	0	0	0	505	511	
6	0	0	0	0	504	512	
7	0	0	0	0	505	512	
8	0	0	0	0	506	515	
9	0	0	0	0	507	512	
10	0	0	0	0	507	512	
11	0	0	0	0	505	512	
12	0	0	0	0	501	512	
13	0	0	0	0	507	513	
14	0	0	0	0	505	512	
15	0	0	0	0	504	512	
0	0	0	0	0	501	512	
1	0	0	0	0	500	513	
2	0	0	0	0	504	512	
3	0	0	0	0	503	510	
4	0	0	0	0	506	514	
5	0	0	0	0	507	513	
6	0	0	0	0	508	513	
7	0	0	0	0	506	510	
8	0	0	0	0	505	511	
9	0	0	0	0	505	511	
10	0	0	0	0	504	511	
11	0	0	0	0	505	510	
12	0	0	0	0	505	512	
13	0	0	0	0	506	512	
14	0	0	0	0	504	511	
15	0	0	0	0	504	512	
0	0	0	0	0	505	512	
1	0	0	0	0	505	513	
2	0	0	0	0	507	512	
3	0	0	0	0	507	513	
4	0	0	0	0	506	512	
5	0	0	0	0	505	512	
6	0	0	0	0	504	511	
7	0	0	0	0	504	512	
8	0	0	0	0	503	511	
9	0	0	0	0	502	512	
10	0	0	0	0	507	511	
11	0	0	0	0	504	512	
12	0	0	0	0	505	513	
13	0	0	0	0	504	512	
14	0	0	0	0	505	512	
15	0	0	0	0	508	511	
0	0	0	0	0	509	511	
1	0	0	0	0	508	511	
2	0	0	0	0	510	513	
3	0	0	0	0	509	510	
4	0	0	0	0	508	513	
5	0	0	0	0	507	512	
6	0	0	0	0	502	513	
7	0	0	0	0	498	511	
8	0	0	0	0	496	511	
9	0	0	0	0	499	513	
10	0	0	0	0	501	512	
11	0	0	0	0	504	511	
12	0	0	0	0	508	511	
13	0	0	0	0	510	511	
14	0	0	0	0	508	512	
15	0	0	0	0	507	512	
0	0	0	0	0	505	510	
1	0	0	0	0	505	508	
2	0	0	0	0	504	514	
3	0	0	0	0	502	512	
4	0	0	0	0	505	512	
5	0	0	0	0	506	512	
6	0	0	0	0	505	512	
7	0	0	0	0	509	510	
8	0	0	0	0	507	513	
9	0	0	0	0	507	514	
10	0	0	0	0	504	511	
11	0	0	0	0	505	511	
12	0	0	0	0	508	510	
13	0	0	0	0	506	513	
14	0	0	0	0	505	511	
15	0	0	0	0	504	510	
0	0	0	0	0	503	511	
1	0	0	0	0	504	513	
2	0	0	0	0	510	512	
3	0	0	0	0	507	513	
4	0	0	0	0	507	511	
5	0	0	0	0	510	513	
6	0	0	0	0	510	512	
7	0	0	0	0	508	511	
8	0	0	0	0	507	512	
9	0	0	0	0	507	513	
10	0	0	0	0	508	510	
11	0	0	0	0	506	512	
12	0	0	0	0	507	513	
13	0	0	0	0	500	513	
14	0	0	0	0	489	512	
15	0	0	0	0	490	510	
0	0	0	0	0	499	510	
1	0	0	0	0	508	511	
2	0	0	0	0	506	509	
3	0	0	0	0	508	510	
4	0	0	0	0	508	511	
5	0	0	0	0	504	511	
6	0	0	0	0	507	510	
7	0	0	0	0	508	515	
8	0	0	0	0	507	516	
9	0	0	0	0	506	517	
10	0	0	0	0	507	512	
11	0	0	0	0	505	512	
12	0	0	0	0	507	513	
13	0	0	0	0	507	513	
14	0	0	0	0	507	513	
15	0	0	0	0	505	512	
0	0	0	0	0	505	509	
1	0	0	0	0	507	511	
2	0	0	0	0	508	512	
3	0	0	0	0	507	510	
4	0	0	0	0	505	507	
5	0	0	0	0	507	510	
6	0	0	0	0	504	518	
7	0	0	0	0	505	519	
8	0	0	0	0	506	515	
9	0	0	0	0	507	511	
10	0	0	0	0	505	512	
11	0	0	0	0	504	513	
12	0	0	0	0	504	511	
13	0	0	0	0	505	509	
14	0	0	0	0	503	508	
15	0	0	0	0	506	510	
0	0	0	0	0	506	511	
1	0	0	0	0	505	511	
2	0	0	0	0	505	513	
3	0	0	0	0	506	510	
4	0	0	0	0	505	497	
5	0	0	0	0	503	498	
6	0	0	0	0	506	503	
7	0	0	0	0	506	507	
8	0	0	0	0	505	515	
9	0	0	0	0	506	520	
10	0	0	0	0	506	525	
11	0	0	0	0	505	528	
12	0	0	0	0	507	531	
13	0	0	0	0	507	524	
14	0	0	0	0	506	511	
15	0	0	0	0	504	507	
0	0	0	0	0	505	507	
1	0	0	0	0	504	508	
2	0	0	0	0	503	508	
3	0	0	0	0	504	510	
4	0	0	0	0	505	511	
5	0	0	0	0	505	510	
6	0	0	0	0	504	510	
7	0	0	0	0	504	509	
8	0	0	0	0	504	512	
9	0	0	0	0	504	510	
10	0	0	0	0	507	512	
11	0	0	0	0	507	510	
12	0	0	0	0	507	513	
13	0	0	0	0	507	509	
14	0	0	0	0	505	512	
15	0	0	0	0	506	509	
0	0	0	0	0	506	513	
1	0	0	0	0	506	510	
2	0	0	0	0	506	512	
3	0	0	0	0	506	512	
4	0	0	0	0	507	513	
5	0	0	0	0	505	512	
6	0	0	0	0	506	512	
7	0	0	0	0	505	510	
8	0	0	0	0	504	509	
9	0	0	0	0	503	510	
10	0	0	0	0	505	508	
11	0	0	0	0	506	507	
12	0	0	0	0	507	510	
13	0	0	0	0	506	512	
14	0	0	0	0	507	512	
15	0	0	0	0	507	518	
0	0	0	0	0	504	515	
1	0	0	0	0	504	510	
2	0	0	0	0	505	507	
3	0	0	0	0	505	501	
4	0	0	0	0	503	501	
5	0	0	0	0	504	505	
6	0	0	0	0	504	506	
7	0	0	0	0	506	511	
8	0	0	0	0	508	524	
9	0	0	0	0	505	523	
10	0	0	0	0	505	525	
11	0	0	0	0	506	524	
12	0	0	0	0	507	518	
13	0	0	0	0	507	519	
14	0	0	0	0	504	520	
15	0	0	0	0	504	515	
0	0	0	0	0	506	512	
1	0	0	0	0	506	513	
2	0	0	0	0	504	513	
3	0	0	0	0	506	513	
4	0	0	0	0	506	511	
5	0	0	0	0	505	509	
6	0	0	0	0	506	508	
7	0	0	0	0	505	505	
8	0	0	0	0	506	510	
9	0	0	0	0	506	511	
10	0	0	0	0	505	510	
11	0	0	0	0	504	510	
12	0	0	0	0	504	511	
13	0	0	0	0	504	510	
14	0	0	0	0	504	513	
15	0	0	0	0	505	508	
0	0	0	0	0	505	507	
1	0	0	0	0	504	508	
2	0	0	0	0	504	510	
3	0	0	0	0	505	509	
4	0	0	0	0	507	507	
5	0	0	0	0	503	508	
6	0	0	0	0	505	516	
7	0	0	0	0	504	522	
8	0	0	0	0	503	513	
9	0	0	0	0	507	513	
10	0	0	0	0	505	515	
11	0	0	0	0	508	517	
12	0	0	0	0	506	513	
13	0	0	0	0	505	520	
14	0	0	0	0	505	522	
15	0	0	0	0	504	514	
0	0	0	0	0	505	511	
1	0	0	0	0	506	512	
2	0	0	0	0	505	510	
3	0	0	0	0	505	509	
4	0	0	0	0	505	506	
5	0	0	0	0	505	507	
6	0	0	0	0	507	507	
7	0	0	0	0	505	507	
8	0	0	0	0	505	511	
9	0	0	0	0	505	511	
10	0	0	0	0	506	510	
11	0	0	0	0	506	510	
12	0	0	0	0	505	511	
13	0	0	0	0	506	510	
14	0	0	0	0	507	511	
15	0	0	0	0	505	512	
0	0	0	0	0	505	510	
1	0	0	0	0	504	512	
2	0	0	0	0	503	511	
3	0	0	0	0	504	506	
4	0	0	0	0	505	505	
5	0	0	0	0	508	497	
6	0	0	0	0	506	500	
7	0	0	0	0	504	511	
8	0	0	0	0	505	524	
9	0	0	0	0	503	531	
10	0	0	0	0	505	534	
11	0	0	0	0	505	531	
12	0	0	0	0	504	534	
13	0	0	0	0	504	520	
14	0	0	0	0	504	503	
15	0	0	0	0	506	497	
0	0	0	0	0	504	500	
1	0	0	0	0	507	504	
2	0	0	0	0	506	508	
3	0	0	0	0	504	507	
4	0	0	0	0	508	509	
5	0	0	0	0	505	518	
6	0	0	0	0	508	517	
7	0	0	0	0	508	509	
8	0	0	0	0	506	511	
9	0	0	0	0	508	508	
10	0	0	0	0	505	508	
11	0	0	0	0	505	508	
12	0	0	0	0	505	511	
13	0	0	0	0	504	511	
14	0	0	0	0	504	512	
15	0	0	0	0	505	510	
0	0	0	0	0	505	518	
1	0	0	0	0	504	519	
2	0	0	0	0	503	512	
3	0	0	0	0	503	510	
4	0	0	0	0	506	512	
5	0	0	0	0	504	510	
6	0	0	0	0	505	513	
7	0	0	0	0	504	512	
8	0	0	0	0	505	512	
9	0	0	0	0	504	513	
10	0	0	0	0	507	512	
11	0	0	0	0	505	512	
12	0	0	0	0	504	511	
13	0	0	0	0	504	510	
14	0	0	0	0	506	510	
15	0	0	0	0	508	511	
0	0	0	0	0	507	510	
1	0	0	0	0	505	513	
2	0	0	0	0	504	513	
3	0	0	0	0	504	513	
4	0	0	0	0	507	513	
5	0	0	0	0	505	512	
6	0	0	0	0	506	515	
7	0	0	0	0	505	511	
8	0	0	0	0	506	512	
9	0	0	0	0	506	509	
10	0	0	0	0	506	511	
11	0	0	0	0	510	513	
12	0	0	0	0	509	513	
13	0	0	0	0	502	512	
14	0	0	0	0	501	511	
15	0	0	0	0	504	510	
0	0	0	0	0	504	510	
1	0	0	0	0	504	512	
2	0	0	0	0	505	512	
3	0	0	0	0	507	512	
4	0	0	0	0	506	514	
5	0	0	0	0	504	511	
6	0	0	0	0	507	513	
7	0	0	0	0	504	511	
8	0	0	0	0	505	511	
9	0	0	0	0	507	511	
10	0	0	0	0	505	510	
11	0	0	0	0	505	508	
12	0	0	0	0	506	511	
13	0	0	0	0	505	510	
14	0	0	0	0	505	511	
15	0	0	0	0	506	511	
0	0	0	0	0	502	511	
1	0	0	0	0	504	512	
2	0	0	0	0	504	513	
3	0	0	0	0	507	511	
4	0	0	0	0	506	513	
5	0	0	0	0	508	512	
6	0	0	0	0	505	512	
7	0	0	0	0	506	511	
8	0	0	0	0	505	511	
9	0	0	0	0	505	511	
10	0	0	0	0	506	513	
11	0	0	0	0	505	515	
12	0	0	0	0	506	513	
13	0	0	0	0	504	512	
14	0	0	0	0	506	511	
15	0	0	0	0	503	511	
0	0	0	0	0	504	510	
1	0	0	0	0	506	512	
2	0	0	0	0	505	511	
3	0	0	0	0	504	514	
4	0	0	0	0	505	513	
5	0	0	0	0	505	513	
6	0	0	0	0	506	512	
7	0	0	0	0	505	513	
8	0	0	0	0	505	513	
9	0	0	0	0	507	512	
10	0	0	0	0	505	511	
11	0	0	0	0	507	512	
12	0	0	0	0	508	512	
13	0	0	0	0	507	512	
14	0	0	0	0	506	511	
15	0	0	0	0	507	513	
0	0	0	0	0	505	512	
1	0	0	0	0	504	510	
2	0	0	0	0	505	512	
3	0	0	0	0	504	511	
4	0	0	0	0	505	511	
5	0	0	0	0	503	513	
6	0	0	0	0	503	512	
7	0	0	0	0	502	511	
8	0	0	0	0	504	509	
9	0	0	0	0	507	509	
10	0	0	0	0	505	510	
11	0	0	0	0	506	516	
12	0	0	0	0	507	514	
13	0	0	0	0	508	515	
14	0	0	0	0	507	515	
15	0	0	0	0	507	512	
0	0	0	0	0	505	512	
1	0	0	0	0	505	510	
2	0	0	0	0	505	511	
3	0	0	0	0	504	512	
4	0	0	0	0	507	511	
5	0	0	0	0	506	513	
6	0	0	0	0	507	511	
7	0	0	0	0	504	512	
8	0	0	0	0	504	514	
9	0	0	0	0	504	510	
10	0	0	0	0	505	510	
11	0	0	0	0	505	510	
12	0	0	0	0	506	512	
13	0	0	0	0	505	511	
14	0	0	0	0	506	513	
15	0	0	0	0	504	512	
0	0	0	0	0	505	517	
1	0	0	0	0	503	515	
2	0	0	0	0	505	511	
3	0	0	0	0	506	511	
4	0	0	0	0	505	509	
5	0	0	0	0	508	510	
6	0	0	0	0	507	511	
7	0	0	0	0	504	508	
8	0	0	0	0	504	510	
9	0	0	0	0	503	509	
10	0	0	0	0	504	510	
11	0	0	0	0	506	512	
12	0	0	0	0	506	511	
13	0	0	0	0	505	513	
14	0	0	0	0	504	513	
15	0	0	0	0	505	514	
0	0	0	0	0	507	514	
1	0	0	0	0	507	512	
2	0	0	0	0	507	512	
3	0	0	0	0	503	512	
4	0	0	0	0	504	511	
5	0	0	0	0	507	511	
6	0	0	0	0	506	513	
7	0	0	0	0	506	512	
8	0	0	0	0	505	511	
9	0	0	0	0	507	514	
10	0	0	0	0	508	513	
11	0	0	0	0	504	513	
12	0	0	0	0	504	511	
13	0	0	0	0	504	511	
14	0	0	0	0	504	512	
15	0	0	0	0	503	512	
0	0	0	0	0	504	509	
1	0	0	0	0	507	511	
2	0	0	0	0	507	512	
3	0	0	0	0	504	513	
4	0	0	0	0	508	513	
5	0	0	0	0	507	512	
6	0	0	0	0	507	511	
7	0	0	0	0	509	511	
8	0	0	0	0	503	509	
9	0	0	0	0	503	512	
10	0	0	0	0	504	511	
11	0	0	0	0	505	508	
12	0	0	0	0	504	511	
13	0	0	0	0	505	513	
14	0	0	0	0	503	512	
15	0	0	0	0	504	513	
0	0	0	0	0	505	511	
1	0	0	0	0	505	511	
2	0	0	0	0	507	512	
3	0	0	0	0	507	512	
4	0	0	0	0	504	510	
5	0	0	0	0	505	515	
6	0	0	0	0	507	512	
7	0	0	0	0	504	511	
8	0	0	0	0	504	512	
9	0	0	0	0	505	510	
10	0	0	0	0	506	512	
11	0	0	0	0	506	510	
12	0	0	0	0	507	511	
13	0	0	0	0	506	513	
14	0	0	0	0	505	513	
15	0	0	0	0	504	512	
0	0	0	0	0	504	513	
1	0	0	0	0	505	512	
2	0	0	0	0	506	512	
3	0	0	0	0	503	506	
4	0	0	0	0	504	498	
5	0	0	0	0	504	499	
6	0	0	0	0	506	507	
7	0	0	0	0	506	511	
8	0	0	0	0	508	514	
9	0	0	0	0	506	524	
10	0	0	0	0	506	529	
11	0	0	0	0	504	539	
12	0	0	0	0	507	524	
13	0	0	0	0	505	516	
14	0	0	0	0	504	513	
15	0	0	0	0	505	512	
0	0	0	0	0	504	509	
1	0	0	0	0	506	507	
2	0	0	0	0	507	508	
3	0	0	0	0	506	506	
4	0	0	0	0	506	505	
5	0	0	0	0	506	509	
6	0	0	0	0	506	509	
7	0	0	0	0	504	510	
8	0	0	0	0	507	510	
9	0	0	0	0	503	511	
10	0	0	0	0	506	511	
11	0	0	0	0	508	512	
12	0	0	0	0	505	512	
13	0	0	0	0	504	509	
14	0	0	0	0	504	504	
15	0	0	0	0	504	506	
0	0	0	0	0	504	507	
1	0	0	0	0	505	504	
2	0	0	0	0	505	502	
3	0	0	0	0	505	503	
4	0	0	0	0	505	520	
5	0	0	0	0	508	527	
6	0	0	0	0	505	518	
7	0	0	0	0	504	516	
8	0	0	0	0	504	516	
9	0	0	0	0	504	518	
10	0	0	0	0	508	520	
11	0	0	0	0	508	526	
12	0	0	0	0	508	517	
13	0	0	0	0	505	512	
14	0	0	0	0	505	511	
15	0	0	0	0	506	507	
0	0	0	0	0	505	506	
1	0	0	0	0	504	507	
2	0	0	0	0	506	510	
3	0	0	0	0	507	511	
4	0	0	0	0	505	511	
5	0	0	0	0	506	508	
6	0	0	0	0	504	511	
7	0	0	0	0	505	511	
8	0	0	0	0	505	511	
9	0	0	0	0	509	511	
10	0	0	0	0	507	511	
11	0	0	0	0	508	513	
12	0	0	0	0	510	512	
13	0	0	0	0	507	512	
14	0	0	0	0	512	512	
15	0	0	0	0	505	514	
0	0	0	0	0	502	510	
1	0	0	0	0	504	513	
2	0	0	0	0	504	514	
3	0	0	0	0	495	517	
4	0	0	0	0	487	511	
5	0	0	0	0	498	511	
6	0	0	0	0	502	511	
7	0	0	0	0	505	499	
8	0	0	0	0	509	493	
9	0	0	0	0	508	498	
10	0	0	0	0	509	505	
11	0	0	0	0	511	511	
12	0	0	0	0	508	515	
13	0	0	0	0	508	520	
14	0	0	0	0	508	526	
15	0	0	0	0	508	536	
0	0	0	0	0	506	526	
1	0	0	0	0	505	517	
2	0	0	0	0	505	511	
3	0	0	0	0	505	510	
4	0	0	0	0	506	509	
5	0	0	0	0	506	510	
6	0	0	0	0	505	511	
7	0	0	0	0	504	510	
8	0	0	0	0	504	510	
9	0	0	0	0	505	511	
10	0	0	0	0	507	514	
11	0	0	0	0	506	514	
12	0	0	0	0	507	508	
13	0	0	0	0	507	507	
14	0	0	0	0	505	511	
15	0	0	0	0	507	512	
0	0	0	0	0	505	509	
1	0	0	0	0	507	511	
2	0	0	0	0	505	510	
3	0	0	0	0	504	514	
4	0	0	0	0	505	512	
5	0	0	0	0	505	513	
6	0	0	0	0	505	513	
7	0	0	0	0	508	501	
8	0	0	0	0	508	493	
9	0	0	0	0	504	497	
10	0	0	0	0	504	507	
11	0	0	0	0	504	511	
12	0	0	0	0	505	519	
13	0	0	0	0	504	525	
14	0	0	0	0	505	536	
15	0	0	0	0	507	535	
0	0	0	0	0	507	519	
1	0	0	0	0	504	516	
2	0	0	0	0	505	515	
3	0	0	0	0	505	515	
4	0	0	0	0	504	514	
5	0	0	0	0	504	511	
6	0	0	0	0	504	512	
7	0	0	0	0	503	513	
8	0	0	0	0	506	509	
9	0	0	0	0	505	507	
10	0	0	0	0	507	510	
11	0	0	0	0	508	499	
12	0	0	0	0	508	494	
13	0	0	0	0	507	502	
14	0	0	0	0	505	507	
15	0	0	0	0	507	511	
0	0	0	0	0	504	510	
1	0	0	0	0	505	512	
2	0	0	0	0	506	515	
3	0	0	0	0	508	513	
4	0	0	0	0	505	511	
5	0	0	0	0	506	513	
6	0	0	0	0	505	514	
7	0	0	0	0	506	515	
8	0	0	0	0	504	513	
9	0	0	0	0	504	513	
10	0	0	0	0	504	514	
11	0	0	0	0	505	510	
12	0	0	0	0	505	508	
13	0	0	0	0	505	510	
14	0	0	0	0	505	513	
15	0	0	0	0	506	510	
0	0	0	0	0	505	510	
1	0	0	0	0	502	509	
2	0	0	0	0	501	511	
3	0	0	0	0	504	510	
4	0	0	0	0	505	508	
5	0	0	0	0	505	510	
6	0	0	0	0	505	519	
7	0	0	0	0	504	520	
8	0	0	0	0	507	513	
9	0	0	0	0	507	510	
10	0	0	0	0	504	507	
11	0	0	0	0	505	510	
12	0	0	0	0	505	513	
13	0	0	0	0	504	511	
14	0	0	0	0	504	504	
15	0	0	0	0	503	503	
0	0	0	0	0	504	512	
1	0	0	0	0	508	521	
2	0	0	0	0	506	519	
3	0	0	0	0	506	523	
4	0	0	0	0	505	518	
5	0	0	0	0	507	526	
6	0	0	0	0	508	519	
7	0	0	0	0	511	514	
8	0	0	0	0	506	511	
9	0	0	0	0	505	512	
10	0	0	0	0	504	508	
11	0	0	0	0	504	510	
12	0	0	0	0	504	509	
13	0	0	0	0	503	511	
14	0	0	0	0	506	512	
15	0	0	0	0	506	509	
0	0	0	0	0	507	508	
1	0	0	0	0	506	508	
2	0	0	0	0	507	507	
3	0	0	0	0	504	508	
4	0	0	0	0	502	508	
5	0	0	0	0	505	510	
6	0	0	0	0	504	511	
7	0	0	0	0	504	511	
8	0	0	0	0	504	513	
9	0	0	0	0	508	514	
10	0	0	0	0	505	505	
11	0	0	0	0	505	492	
12	0	0	0	0	507	497	
13	0	0	0	0	507	505	
14	0	0	0	0	507	512	
15	0	0	0	0	506	517	
0	0	0	0	0	505	526	
1	0	0	0	0	506	536	
2	0	0	0	0	503	536	
3	0	0	0	0	506	519	
4	0	0	0	0	505	510	
5	0	0	0	0	506	504	
6	0	0	0	0	505	500	
7	0	0	0	0	504	504	
8	0	0	0	0	504	509	
9	0	0	0	0	505	509	
10	0	0	0	0	506	510	
11	0	0	0	0	504	521	
12	0	0	0	0	504	526	
13	0	0	0	0	505	519	
14	0	0	0	0	506	512	
15	0	0	0	0	506	508	
0	0	0	0	0	505	509	
1	0	0	0	0	503	508	
2	0	0	0	0	504	504	
3	0	0	0	0	504	508	
4	0	0	0	0	508	514	
5	0	0	0	0	506	520	
6	0	0	0	0	507	514	
7	0	0	0	0	506	511	
8	0	0	0	0	505	508	
9	0	0	0	0	507	507	
10	0	0	0	0	505	507	
11	0	0	0	0	510	509	
12	0	0	0	0	508	510	
13	0	0	0	0	501	511	
14	0	0	0	0	501	515	
15	0	0	0	0	505	514	
0	0	0	0	0	507	515	
1	0	0	0	0	506	510	
2	0	0	0	0	505	514	
3	0	0	0	0	506	513	
4	0	0	0	0	504	512	
5	0	0	0	0	506	512	
6	0	0	0	0	504	509	
7	0	0	0	0	503	507	
8	0	0	0	0	505	504	
9	0	0	0	0	508	506	
10	0	0	0	0	508	512	
11	0	0	0	0	507	507	
12	0	0	0	0	510	510	
13	0	0	0	0	508	512	
14	0	0	0	0	510	509	
15	0	0	0	0	506	511	
0	0	0	0	0	505	515	
1	0	0	0	0	504	514	
2	0	0	0	0	497	520	
3	0	0	0	0	488	515	
4	0	0	0	0	493	517	
5	0	0	0	0	505	516	
6	0	0	0	0	512	510	
7	0	0	0	0	508	511	
8	0	0	0	0	505	509	
9	0	0	0	0	508	509	
10	0	0	0	0	507	510	
11	0	0	0	0	508	509	
12	0	0	0	0	507	512	
13	0	0	0	0	505	516	
14	0	0	0	0	502	524	
15	0	0	0	0	504	519	
0	0	0	0	0	507	513	
1	0	0	0	0	507	509	
2	0	0	0	0	507	513	
3	0	0	0	0	506	511	
4	0	0	0	0	504	507	
5	0	0	0	0	506	507	
6	0	0	0	0	505	511	
7	0	0	0	0	507	512	
8	0	0	0	0	505	510	
9	0	0	0	0	506	512	
10	0	0	0	0	506	508	
11	0	0	0	0	507	509	
12	0	0	0	0	505	508	
13	0	0	0	0	505	513	
14	0	0	0	0	506	519	
15	0	0	0	0	506	518	
0	0	0	0	0	508	513	
1	0	0	0	0	505	511	
2	0	0	0	0	504	512	
3	0	0	0	0	502	511	
4	0	0	0	0	504	509	
5	0	0	0	0	503	511	
6	0	0	0	0	504	512	
7	0	0	0	0	506	512	
8	0	0	0	0	506	512	
9	0	0	0	0	506	514	
10	0	0	0	0	504	514	
11	0	0	0	0	505	512	
12	0	0	0	0	506	512	
13	0	0	0	0	506	511	
14	0	0	0	0	505	512	
15	0	0	0	0	506	513	
0	0	0	0	0	507	511	
1	0	0	0	0	505	511	
2	0	0	0	0	508	495	
3	0	0	0	0	508	494	
4	0	0	0	0	506	503	
5	0	0	0	0	505	511	
6	0	0	0	0	511	519	
7	0	0	0	0	511	526	
8	0	0	0	0	511	529	
9	0	0	0	0	512	540	
10	0	0	0	0	509	525	
11	0	0	0	0	508	509	
12	0	0	0	0	512	506	
13	0	0	0	0	507	504	
14	0	0	0	0	494	510	
15	0	0	0	0	492	511	
0	0	0	0	0	489	511	
1	0	0	0	0	492	509	
2	0	0	0	0	501	510	
3	0	0	0	0	508	506	
4	0	0	0	0	504	510	
5	0	0	0	0	503	509	
6	0	0	0	0	502	510	
7	0	0	0	0	505	511	
8	0	0	0	0	510	506	
9	0	0	0	0	510	504	
10	0	0	0	0	509	508	
11	0	0	0	0	508	510	
12	0	0	0	0	507	512	
13	0	0	0	0	512	518	
14	0	0	0	0	513	524	
15	0	0	0	0	515	513	
0	0	0	0	0	509	510	
1	0	0	0	0	497	512	
2	0	0	0	0	489	512	
3	0	0	0	0	500	510	
4	0	0	0	0	511	506	
5	0	0	0	0	509	510	
6	0	0	0	0	507	511	
7	0	0	0	0	502	511	
8	0	0	0	0	499	502	
9	0	0	0	0	499	507	
10	0	0	0	0	501	519	
11	0	0	0	0	500	524	
12	0	0	0	0	511	519	
13	0	0	0	0	515	524	
14	0	0	0	0	508	519	
15	0	0	0	0	505	507	
0	0	0	0	0	504	504	
1	0	0	0	0	507	514	
2	0	0	0	0	505	513	
3	0	0	0	0	505	508	
4	0	0	0	0	502	503	
5	0	0	0	0	503	512	
6	0	0	0	0	505	515	
7	0	0	0	0	508	504	
8	0	0	0	0	505	506	
9	0	0	0	0	506	512	
10	0	0	0	0	508	516	
11	0	0	0	0	510	521	
12	0	0	0	0	508	516	
13	0	0	0	0	507	512	
14	0	0	0	0	507	510	
15	0	0	0	0	502	512	
0	0	0	0	0	502	510	
1	0	0	0	0	509	510	
2	0	0	0	0	506	510	
3	0	0	0	0	504	511	
4	0	0	0	0	503	512	
5	0	0	0	0	503	513	
6	0	0	0	0	504	511	
7	0	0	0	0	508	513	
8	0	0	0	0	502	511	
9	0	0	0	0	502	513	
10	0	0	0	0	504	512	
11	0	0	0	0	507	510	
12	0	0	0	0	507	510	
13	0	0	0	0	508	512	
14	0	0	0	0	507	512	
15	0	0	0	0	509	513	
0	0	0	0	0	506	512	
1	0	0	0	0	507	515	
2	0	0	0	0	504	512	
3	0	0	0	0	504	510	
4	0	0	0	0	498	511	
5	0	0	0	0	503	510	
6	0	0	0	0	499	508	
7	0	0	0	0	507	507	
8	0	0	0	0	513	508	
9	0	0	0	0	510	499	
10	0	0	0	0	507	498	
11	0	0	0	0	511	508	
12	0	0	0	0	505	513	
13	0	0	0	0	505	533	
14	0	0	0	0	507	534	
15	0	0	0	0	507	526	
0	0	0	0	0	504	527	
1	0	0	0	0	493	513	
2	0	0	0	0	484	509	
3	0	0	0	0	489	506	
4	0	0	0	0	503	511	
5	0	0	0	0	508	509	
6	0	0	0	0	511	510	
7	0	0	0	0	512	513	
8	0	0	0	0	516	509	
9	0	0	0	0	515	511	
10	0	0	0	0	516	505	
11	0	0	0	0	514	501	
12	0	0	0	0	505	507	
13	0	0	0	0	491	508	
14	0	0	0	0	494	511	
15	0	0	0	0	501	510	
0	0	0	0	0	504	512	
1	0	0	0	0	504	510	
2	0	0	0	0	503	510	
3	0	0	0	0	501	514	
4	0	0	0	0	507	517	
5	0	0	0	0	508	514	
6	0	0	0	0	510	512	
7	0	0	0	0	508	511	
8	0	0	0	0	504	510	
9	0	0	0	0	509	513	
10	0	0	0	0	517	515	
11	0	0	0	0	519	517	
12	0	0	0	0	509	507	
13	0	0	0	0	497	496	
14	0	0	0	0	500	491	
15	0	0	0	0	504	494	
0	0	0	0	0	507	504	
1	0	0	0	0	509	519	
2	0	0	0	0	505	536	
3	0	0	0	0	499	533	
4	0	0	0	0	497	532	
5	0	0	0	0	496	524	
6	0	0	0	0	500	519	
7	0	0	0	0	507	516	
8	0	0	0	0	507	513	
9	0	0	0	0	505	507	
10	0	0	0	0	505	508	
11	0	0	0	0	506	505	
12	0	0	0	0	504	507	
13	0	0	0	0	503	511	
14	0	0	0	0	504	510	
15	0	0	0	0	504	506	
0	0	0	0	0	499	503	
1	0	0	0	0	502	508	
2	0	0	0	0	504	509	
3	0	0	0	0	508	511	
4	0	0	0	0	510	513	
5	0	0	0	0	514	516	
6	0	0	0	0	512	523	
7	0	0	0	0	505	518	
8	0	0	0	0	503	515	
9	0	0	0	0	503	515	
10	0	0	0	0	506	518	
11	0	0	0	0	508	512	
12	0	0	0	0	507	511	
13	0	0	0	0	507	511	
14	0	0	0	0	507	514	
15	0	0	0	0	505	511	
0	0	0	0	0	507	512	
1	0	0	0	0	507	507	
2	0	0	0	0	501	504	
3	0	0	0	0	502	504	
4	0	0	0	0	499	504	
5	0	0	0	0	506	509	
6	0	0	0	0	505	513	
7	0	0	0	0	507	514	
8	0	0	0	0	510	496	
9	0	0	0	0	502	491	
10	0	0	0	0	494	499	
11	0	0	0	0	504	516	
12	0	0	0	0	508	521	
13	0	0	0	0	507	527	
14	0	0	0	0	506	534	
15	0	0	0	0	508	540	
0	0	0	0	0	509	524	
1	0	0	0	0	509	510	
2	0	0	0	0	514	501	
3	0	0	0	0	512	498	
4	0	0	0	0	508	499	
5	0	0	0	0	502	496	
6	0	0	0	0	492	507	
7	0	0	0	0	485	528	
8	0	0	0	0	497	533	
9	0	0	0	0	505	526	
10	0	0	0	0	510	522	
11	0	0	0	0	507	508	
12	0	0	0	0	511	502	
13	0	0	0	0	508	507	
14	0	0	0	0	499	505	
15	0	0	0	0	511	504	
0	0	0	0	0	513	506	
1	0	0	0	0	511	512	
2	0	0	0	0	509	513	
3	0	0	0	0	503	513	
4	0	0	0	0	499	512	
5	0	0	0	0	502	511	
6	0	0	0	0	504	515	
7	0	0	0	0	509	513	
8	0	0	0	0	504	513	
9	0	0	0	0	508	512	
10	0	0	0	0	508	509	
11	0	0	0	0	510	513	
12	0	0	0	0	512	514	
13	0	0	0	0	507	512	
14	0	0	0	0	507	514	
15	0	0	0	0	507	515	
0	0	0	0	0	505	509	
1	0	0	0	0	500	511	
2	0	0	0	0	502	516	
3	0	0	0	0	500	513	
4	0	0	0	0	499	514	
5	0	0	0	0	504	511	
6	0	0	0	0	513	510	
7	0	0	0	0	512	505	
8	0	0	0	0	507	501	
9	0	0	0	0	507	504	
10	0	0	0	0	507	516	
11	0	0	0	0	505	515	
12	0	0	0	0	503	511	
13	0	0	0	0	504	511	
14	0	0	0	0	506	511	
15	0	0	0	0	510	512	
0	0	0	0	0	509	510	
1	0	0	0	0	510	513	
2	0	0	0	0	507	516	
3	0	0	0	0	507	516	
4	0	0	0	0	502	518	
5	0	0	0	0	496	515	
6	0	0	0	0	505	514	
7	0	0	0	0	496	519	
8	0	0	0	0	493	512	
9	0	0	0	0	497	509	
10	0	0	0	0	504	506	
11	0	0	0	0	508	510	
12	0	0	0	0	507	512	
13	0	0	0	0	508	510	
14	0	0	0	0	512	510	
15	0	0	0	0	506	512	
0	0	0	0	0	505	509	
1	0	0	0	0	506	511	
2	0	0	0	0	507	513	
3	0	0	0	0	507	513	
4	0	0	0	0	508	513	
5	0	0	0	0	504	513	
6	0	0	0	0	505	514	
7	0	0	0	0	508	509	
8	0	0	0	0	511	510	
9	0	0	0	0	507	512	
10	0	0	0	0	502	510	
11	0	0	0	0	503	511	
12	0	0	0	0	505	511	
13	0	0	0	0	505	512	
14	0	0	0	0	506	510	
15	0	0	0	0	507	510	
0	0	0	0	0	508	514	
1	0	0	0	0	508	519	
2	0	0	0	0	508	516	
3	0	0	0	0	507	514	
4	0	0	0	0	508	510	
5	0	0	0	0	508	515	
6	0	0	0	0	508	513	
7	0	0	0	0	510	504	
8	0	0	0	0	501	508	
9	0	0	0	0	485	508	
10	0	0	0	0	493	510	
11	0	0	0	0	505	509	
12	0	0	0	0	505	508	
13	0	0	0	0	503	511	
14	0	0	0	0	504	515	
15	0	0	0	0	500	515	
0	0	0	0	0	504	514	
1	0	0	0	0	502	514	
2	0	0	0	0	499	513	
3	0	0	0	0	511	510	
4	0	0	0	0	512	493	
5	0	0	0	0	503	487	
6	0	0	0	0	503	497	
7	0	0	0	0	504	505	
8	0	0	0	0	503	517	
9	0	0	0	0	511	523	
10	0	0	0	0	509	527	
11	0	0	0	0	516	538	
12	0	0	0	0	517	523	
13	0	0	0	0	512	515	
14	0	0	0	0	507	524	
15	0	0	0	0	508	527	
0	0	0	0	0	508	531	
1	0	0	0	0	506	525	
2	0	0	0	0	507	504	
3	0	0	0	0	505	503	
4	0	0	0	0	501	503	
5	0	0	0	0	488	502	
6	0	0	0	0	503	502	
7	0	0	0	0	499	504	
8	0	0	0	0	500	508	
9	0	0	0	0	508	511	
10	0	0	0	0	509	511	
11	0	0	0	0	508	507	
12	0	0	0	0	511	503	
13	0	0	0	0	512	510	
14	0	0	0	0	506	512	
15	0	0	0	0	499	512	
0	0	0	0	0	496	511	
1	0	0	0	0	498	508	
2	0	0	0	0	499	511	
3	0	0	0	0	505	508	
4	0	0	0	0	507	508	
5	0	0	0	0	501	509	
6	0	0	0	0	503	506	
7	0	0	0	0	508	517	
8	0	0	0	0	512	523	
9	0	0	0	0	511	520	
10	0	0	0	0	509	515	
11	0	0	0	0	506	512	
12	0	0	0	0	505	511	
13	0	0	0	0	507	510	
14	0	0	0	0	505	511	
15	0	0	0	0	504	511	
0	0	0	0	0	504	511	
1	0	0	0	0	508	518	
2	0	0	0	0	508	513	
3	0	0	0	0	507	507	
4	0	0	0	0	508	511	
5	0	0	0	0	509	515	
6	0	0	0	0	505	515	
7	0	0	0	0	507	510	
8	0	0	0	0	510	509	
9	0	0	0	0	513	511	
10	0	0	0	0	507	510	
11	0	0	0	0	508	513	
12	0	0	0	0	503	514	
13	0	0	0	0	489	515	
14	0	0	0	0	480	515	
15	0	0	0	0	489	511	
0	0	0	0	0	507	514	
1	0	0	0	0	511	512	
2	0	0	0	0	507	514	
3	0	0	0	0	515	511	
4	0	0	0	0	510	501	
5	0	0	0	0	507	502	
6	0	0	0	0	508	504	
7	0	0	0	0	504	507	
8	0	0	0	0	502	510	
9	0	0	0	0	504	516	
10	0	0	0	0	507	519	
11	0	0	0	0	508	514	
12	0	0	0	0	508	516	
13	0	0	0	0	507	524	
14	0	0	0	0	507	523	
15	0	0	0	0	505	515	
0	0	0	0	0	505	511	
1	0	0	0	0	504	508	
2	0	0	0	0	504	506	
3	0	0	0	0	502	508	
4	0	0	0	0	504	510	
5	0	0	0	0	504	511	
6	0	0	0	0	505	514	
7	0	0	0	0	507	514	
8	0	0	0	0	509	514	
9	0	0	0	0	508	514	
10	0	0	0	0	508	513	
11	0	0	0	0	511	512	
12	0	0	0	0	508	507	
13	0	0	0	0	505	508	
14	0	0	0	0	496	512	
15	0	0	0	0	491	507	
0	0	0	0	0	493	499	
1	0	0	0	0	503	497	
2	0	0	0	0	525	504	
3	0	0	0	0	521	513	
4	0	0	0	0	514	515	
5	0	0	0	0	515	518	
6	0	0	0	0	521	527	
7	0	0	0	0	509	539	
8	0	0	0	0	505	527	
9	0	0	0	0	507	515	
10	0	0	0	0	489	510	
11	0	0	0	0	487	509	
12	0	0	0	0	482	507	
13	0	0	0	0	483	506	
14	0	0	0	0	514	508	
15	0	0	0	0	529	509	
0	0	0	0	0	502	504	
1	0	0	0	0	483	508	
2	0	0	0	0	499	515	
3	0	0	0	0	509	519	
4	0	0	0	0	513	515	
5	0	0	0	0	511	511	
6	0	0	0	0	513	507	
7	0	0	0	0	514	511	
8	0	0	0	0	511	511	
9	0	0	0	0	511	511	
10	0	0	0	0	512	510	
11	0	0	0	0	508	511	
12	0	0	0	0	509	513	
13	0	0	0	0	475	511	
14	0	0	0	0	472	499	
15	0	0	0	0	487	503	
0	0	0	0	0	502	503	
1	0	0	0	0	525	505	
2	0	0	0	0	514	508	
3	0	0	0	0	507	516	
4	0	0	0	0	502	526	
5	0	0	0	0	506	527	
6	0	0	0	0	512	519	
7	0	0	0	0	517	515	
8	0	0	0	0	516	524	
9	0	0	0	0	506	519	
10	0	0	0	0	505	505	
11	0	0	0	0	509	509	
12	0	0	0	0	516	508	
13	0	0	0	0	512	509	
14	0	0	0	0	512	512	
15	0	0	0	0	507	513	
0	0	0	0	0	489	510	
1	0	0	0	0	487	510	
2	0	0	0	0	492	510	
3	0	0	0	0	508	513	
4	0	0	0	0	510	511	
5	0	0	0	0	508	512	
6	0	0	0	0	503	512	
7	0	0	0	0	514	512	
8	0	0	0	0	511	513	
9	0	0	0	0	507	510	
10	0	0	0	0	509	505	
11	0	0	0	0	504	508	
12	0	0	0	0	497	510	
13	0	0	0	0	499	512	
14	0	0	0	0	505	517	
15	0	0	0	0	503	518	
0	0	0	0	0	496	515	
1	0	0	0	0	501	508	
2	0	0	0	0	506	509	
3	0	0	0	0	515	506	
4	0	0	0	0	509	512	
5	0	0	0	0	514	518	
6	0	0	0	0	519	519	
7	0	0	0	0	510	524	
8	0	0	0	0	508	531	
9	0	0	0	0	511	518	
10	0	0	0	0	518	507	
11	0	0	0	0	512	499	
12	0	0	0	0	511	498	
13	0	0	0	0	515	504	
14	0	0	0	0	504	499	
15	0	0	0	0	521	502	
0	0	0	0	0	521	515	
1	0	0	0	0	489	516	
2	0	0	0	0	468	520	
3	0	0	0	0	479	516	
4	0	0	0	0	509	511	
5	0	0	0	0	487	509	
6	0	0	0	0	469	504	
7	0	0	0	0	489	504	
8	0	0	0	0	500	500	
9	0	0	0	0	492	504	
10	0	0	0	0	521	511	
11	0	0	0	0	520	527	
12	0	0	0	0	509	536	
13	0	0	0	0	515	512	
14	0	0	0	0	519	487	
15	0	0	0	0	514	485	
0	0	0	0	0	504	507	
1	0	0	0	0	502	519	
2	0	0	0	0	503	518	
3	0	0	0	0	504	523	
4	0	0	0	0	511	529	
5	0	0	0	0	515	530	
6	0	0	0	0	513	518	
7	0	0	0	0	503	515	
8	0	0	0	0	488	519	
9	0	0	0	0	491	519	
10	0	0	0	0	503	525	
11	0	0	0	0	492	509	
12	0	0	0	0	484	510	
13	0	0	0	0	500	527	
14	0	0	0	0	518	521	
15	0	0	0	0	525	499	
0	0	0	0	0	542	484	
1	0	0	0	0	541	488	
2	0	0	0	0	522	497	
3	0	0	0	0	492	506	
4	0	0	0	0	493	513	
5	0	0	0	0	526	508	
6	0	0	0	0	507	507	
7	0	0	0	0	478	511	
8	0	0	0	0	494	513	
9	0	0	0	0	499	515	
10	0	0	0	0	495	517	
11	0	0	0	0	512	515	
12	0	0	0	0	500	515	
13	0	0	0	0	492	513	
14	0	0	0	0	497	513	
15	0	0	0	0	517	513	
0	0	0	0	0	519	510	
1	0	0	0	0	509	508	
2	0	0	0	0	508	508	
3	0	0	0	0	505	515	
4	0	0	0	0	506	521	
5	0	0	0	0	511	520	
6	0	0	0	0	543	517	
7	0	0	0	0	539	516	
8	0	0	0	0	522	514	
9	0	0	0	0	502	511	
10	0	0	0	0	490	504	
11	0	0	0	0	481	506	
12	0	0	0	0	511	509	
13	0	0	0	0	464	511	
14	0	0	0	0	489	509	
15	0	0	0	0	519	511	
0	0	0	0	0	531	505	
1	0	0	0	0	515	508	
2	0	0	0	0	493	512	
3	0	0	0	0	478	511	
4	0	0	0	0	488	506	
5	0	0	0	0	499	507	
6	0	0	0	0	492	512	
7	0	0	0	0	464	514	
8	0	0	0	0	460	517	
9	0	0	0	0	497	514	
10	0	0	0	0	518	513	
11	0	0	0	0	524	518	
12	0	0	0	0	515	515	
13	0	0	0	0	508	511	
14	0	0	0	0	516	510	
15	0	0	0	0	521	515	
0	0	0	0	0	504	521	
1	0	0	0	0	507	517	
2	0	0	0	0	506	510	
3	0	0	0	0	505	511	
4	0	0	0	0	509	511	
5	0	0	0	0	510	515	
6	0	0	0	0	518	515	
7	0	0	0	0	537	511	
8	0	0	0	0	543	512	
9	0	0	0	0	527	518	
10	0	0	0	0	517	519	
11	0	0	0	0	510	518	
12	0	0	0	0	511	519	
13	0	0	0	0	512	525	
14	0	0	0	0	499	518	
15	0	0	0	0	485	513	
0	0	0	0	0	509	504	
1	0	0	0	0	493	487	
2	0	0	0	0	440	491	
3	0	0	0	0	482	487	
4	0	0	0	0	507	493	
5	0	0	0	0	521	493	
6	0	0	0	0	535	505	
7	0	0	0	0	480	515	
8	0	0	0	0	483	519	
9	0	0	0	0	496	518	
10	0	0	0	0	481	517	
11	0	0	0	0	463	514	
12	0	0	0	0	495	514	
13	0	0	0	0	509	513	
14	0	0	0	0	512	514	
15	0	0	0	0	510	514	
0	0	0	0	0	513	518	
1	0	0	0	0	517	518	
2	0	0	0	0	513	517	
3	0	0	0	0	513	517	
4	0	0	0	0	511	516	
5	0	0	0	0	507	518	
6	0	0	0	0	499	518	
7	0	0	0	0	499	516	
8	0	0	0	0	501	516	
9	0	0	0	0	513	518	
10	0	0	0	0	523	517	
11	0	0	0	0	546	519	
12	0	0	0	0	556	519	
13	0	0	0	0	585	514	
14	0	0	0	0	582	508	
15	0	0	0	0	526	509	
0	0	0	0	0	503	513	
1	0	0	0	0	450	516	
2	0	0	0	0	421	511	
3	0	0	0	0	415	502	
4	0	0	0	0	450	507	
5	0	0	0	0	503	500	
6	0	0	0	0	513	492	
7	0	0	0	0	509	511	
8	0	0	0	0	500	521	
9	0	0	0	0	472	507	
10	0	0	0	0	483	499	
11	0	0	0	0	513	497	
12	0	0	0	0	508	505	
13	0	0	0	0	515	511	
14	0	0	0	0	524	515	
15	0	0	0	0	511	513	
0	0	0	0	0	532	513	
1	0	0	0	0	528	513	
2	0	0	0	0	528	518	
3	0	0	0	0	542	527	
4	0	0	0	0	552	530	
5	0	0	0	0	529	527	
6	0	0	0	0	498	518	
7	0	0	0	0	472	511	
8	0	0	0	0	477	513	
9	0	0	0	0	537	524	
10	0	0	0	0	568	536	
11	0	0	0	0	571	533	
12	0	0	0	0	571	524	
13	0	0	0	0	590	519	
14	0	0	0	0	545	507	
15	0	0	0	0	465	498	
0	0	0	0	0	448	478	
1	0	0	0	0	395	444	
2	0	0	0	0	449	438	
3	0	0	0	0	472	465	
4	0	0	0	0	422	505	
5	0	0	0	0	411	543	
6	0	0	0	0	427	536	
7	0	0	0	0	483	518	
8	0	0	0	0	508	507	
9	0	0	0	0	472	509	
10	0	0	0	0	465	514	
11	0	0	0	0	483	518	
12	0	0	0	0	502	521	
13	0	0	0	0	505	523	
14	0	0	0	0	510	523	
15	0	0	0	0	517	523	
0	0	0	0	0	521	519	
1	0	0	0	0	524	518	
2	0	0	0	0	524	517	
3	0	0	0	0	525	516	
4	0	0	0	0	524	512	
5	0	0	0	0	540	517	
6	0	0	0	0	541	521	
7	0	0	0	0	536	523	
8	0	0	0	0	536	525	
9	0	0	0	0	519	526	
10	0	0	0	0	557	530	
11	0	0	0	0	620	531	
12	0	0	0	0	589	530	
13	0	0	0	0	598	511	
14	0	0	0	0	592	476	
15	0	0	0	0	584	485	
0	0	0	0	0	455	504	
1	0	0	0	0	321	527	
2	0	0	0	0	350	531	
3	0	0	0	0	405	515	
4	0	0	0	0	419	498	
5	0	0	0	0	403	491	
6	0	0	0	0	532	471	
7	0	0	0	0	554	473	
8	0	0	0	0	532	513	
9	0	0	0	0	499	522	
10	0	0	0	0	468	526	
11	0	0	0	0	433	523	
12	0	0	0	0	468	504	
13	0	0	0	0	512	496	
14	0	0	0	0	514	497	
15	0	0	0	0	513	504	
0	0	0	0	0	516	513	
1	0	0	0	0	521	519	
2	0	0	0	0	522	506	
3	0	0	0	0	515	504	
4	0	0	0	0	511	510	
5	0	0	0	0	522	516	
6	0	0	0	0	538	516	
7	0	0	0	0	557	523	
8	0	0	0	0	560	536	
9	0	0	0	0	595	558	
10	0	0	0	0	601	544	
11	0	0	0	0	572	526	
12	0	0	0	0	559	527	
13	0	0	0	0	511	527	
14	0	0	0	0	476	524	
15	0	0	0	0	511	507	
0	0	0	0	0	459	492	
1	0	0	0	0	436	500	
2	0	0	0	0	534	471	
3	0	0	0	0	556	462	
4	0	0	0	0	499	448	
5	0	0	0	0	537	458	
6	0	0	0	0	558	516	
7	0	0	0	0	344	569	
8	0	0	0	0	327	561	
9	0	0	0	0	344	536	
10	0	0	0	0	371	505	
11	0	0	0	0	434	483	
12	0	0	0	0	469	480	
13	0	0	0	0	492	494	
14	0	0	0	0	500	512	
15	0	0	0	0	527	531	
0	0	0	0	0	551	551	
1	0	0	0	0	550	551	
2	0	0	0	0	570	547	
3	0	0	0	0	620	525	
4	0	0	0	0	638	519	
5	0	0	0	0	602	498	
6	0	0	0	0	566	484	
7	0	0	0	0	512	492	
8	0	0	0	0	507	507	
9	0	0	0	0	444	516	
10	0	0	0	0	393	526	
11	0	0	0	0	370	545	
12	0	0	0	0	456	559	
13	0	0	0	0	492	536	
14	0	0	0	0	519	530	
15	0	0	0	0	559	515	
0	0	0	0	0	621	514	
1	0	0	0	0	634	505	
2	0	0	0	0	537	479	
3	0	0	0	0	503	450	
4	0	0	0	0	607	441	
5	0	0	0	0	591	472	
6	0	0	0	0	591	495	
7	0	0	0	0	541	495	
8	0	0	0	0	430	496	
9	0	0	0	0	319	502	
10	0	0	0	0	355	514	
11	0	0	0	0	400	523	
12	0	0	0	0	421	527	
13	0	0	0	0	428	531	
14	0	0	0	0	469	538	
15	0	0	0	0	480	540	
0	0	0	0	0	484	534	
1	0	0	0	0	512	528	
2	0	0	0	0	511	513	
3	0	0	0	0	502	497	
4	0	0	0	0	516	500	
5	0	0	0	0	559	502	
6	0	0	0	0	568	512	
7	0	0	0	0	575	524	
8	0	0	0	0	557	530	
9	0	0	0	0	531	526	
10	0	0	0	0	551	520	
11	0	0	0	0	542	511	
12	0	0	0	0	537	499	
13	0	0	0	0	497	502	
14	0	0	0	0	511	523	
15	0	0	0	0	548	529	
0	0	0	0	0	578	519	
1	0	0	0	0	508	515	
2	0	0	0	0	478	502	
3	0	0	0	0	582	483	
4	0	0	0	0	537	454	
5	0	0	0	0	372	455	
6	0	0	0	0	507	455	
7	0	0	0	0	528	496	
8	0	0	0	0	472	531	
9	0	0	0	0	407	543	
10	0	0	0	0	341	515	
11	0	0	0	0	499	517	
12	0	0	0	0	481	517	
13	0	0	0	0	496	508	
14	0	0	0	0	524	528	
15	0	0	0	0	496	549	
0	0	0	0	0	429	538	
1	0	0	0	0	433	530	
2	0	0	0	0	498	528	
3	0	0	0	0	515	513	
4	0	0	0	0	520	482	
5	0	0	0	0	530	474	
6	0	0	0	0	519	499	
7	0	0	0	0	510	529	
8	0	0	0	0	519	536	
9	0	0	0	0	567	532	
10	0	0	0	0	598	526	
11	0	0	0	0	585	523	
12	0	0	0	0	544	506	
13	0	0	0	0	514	496	
14	0	0	0	0	484	527	
15	0	0	0	0	440	562	
0	0	0	0	0	395	540	
1	0	0	0	0	504	500	
2	0	0	0	0	630	506	
3	0	0	0	0	631	524	
4	0	0	0	0	638	526	
5	0	0	0	0	510	523	
6	0	0	0	0	405	526	
7	0	0	0	0	404	514	
8	0	0	0	0	457	500	
9	0	0	0	0	490	464	
10	0	0	0	0	592	460	
11	0	0	0	0	626	457	
12	0	0	0	0	671	483	
13	0	0	0	0	694	512	
14	0	0	0	0	545	516	
15	0	0	0	0	387	514	
0	0	0	0	0	231	503	
1	0	0	0	0	302	505	
2	0	0	0	0	324	529	
3	0	0	0	0	325	534	
4	0	0	0	0	390	524	
5	0	0	0	0	469	526	
6	0	0	0	0	476	534	
7	0	0	0	0	517	530	
8	0	0	0	0	590	504	
9	0	0	0	0	619	492	
10	0	0	0	0	623	499	
11	0	0	0	0	603	498	
12	0	0	0	0	492	505	
13	0	0	0	0	518	515	
14	0	0	0	0	521	499	
15	0	0	0	0	530	484	
0	0	0	0	0	507	515	
1	0	0	0	0	509	541	
2	0	0	0	0	519	530	
3	0	0	0	0	484	535	
4	0	0	0	0	488	530	
5	0	0	0	0	486	518	
6	0	0	0	0	481	503	
7	0	0	0	0	533	496	
8	0	0	0	0	535	499	
9	0	0	0	0	507	494	
10	0	0	0	0	465	476	
11	0	0	0	0	496	505	
12	0	0	0	0	575	516	
13	0	0	0	0	623	524	
14	0	0	0	0	653	542	
15	0	0	0	0	663	525	
0	0	0	0	0	569	505	
1	0	0	0	0	550	496	
2	0	0	0	0	521	521	
3	0	0	0	0	412	518	
4	0	0	0	0	283	513	
5	0	0	0	0	335	519	
6	0	0	0	0	331	524	
7	0	0	0	0	406	516	
8	0	0	0	0	480	508	
9	0	0	0	0	526	500	
10	0	0	0	0	529	495	
11	0	0	0	0	515	487	
12	0	0	0	0	540	492	
13	0	0	0	0	573	507	
14	0	0	0	0	599	511	
15	0	0	0	0	560	515	
0	0	0	0	0	480	525	
1	0	0	0	0	491	534	
2	0	0	0	0	420	533	
3	0	0	0	0	423	519	
4	0	0	0	0	537	519	
5	0	0	0	0	627	519	
6	0	0	0	0	586	531	
7	0	0	0	0	578	519	
8	0	0	0	0	542	499	
9	0	0	0	0	580	499	
10	0	0	0	0	524	497	
11	0	0	0	0	438	498	
12	0	0	0	0	367	497	
13	0	0	0	0	302	467	
14	0	0	0	0	394	463	
15	0	0	0	0	517	473	
0	0	0	0	0	515	510	
1	0	0	0	0	512	533	
2	0	0	0	0	493	545	
3	0	0	0	0	515	566	
4	0	0	0	0	564	575	
5	0	0	0	0	575	548	
6	0	0	0	0	573	498	
7	0	0	0	0	645	520	
8	0	0	0	0	614	563	
9	0	0	0	0	575	524	
10	0	0	0	0	639	467	
11	0	0	0	0	596	500	
12	0	0	0	0	490	545	
13	0	0	0	0	440	485	
14	0	0	0	0	507	464	
15	0	0	0	0	297	468	
0	0	0	0	0	319	471	
1	0	0	0	0	348	487	
2	0	0	0	0	403	510	
3	0	0	0	0	442	531	
4	0	0	0	0	408	529	
5	0	0	0	0	452	529	
6	0	0	0	0	503	522	
7	0	0	0	0	521	531	
8	0	0	0	0	520	536	
9	0	0	0	0	520	529	
10	0	0	0	0	533	527	
11	0	0	0	0	549	521	
12	0	0	0	0	558	517	
13	0	0	0	0	562	508	
14	0	0	0	0	556	496	
15	0	0	0	0	549	487	
0	0	0	0	0	541	490	
1	0	0	0	0	532	500	
2	0	0	0	0	529	513	
3	0	0	0	0	522	515	
4	0	0	0	0	515	512	
5	0	0	0	0	507	516	
6	0	0	0	0	501	523	
7	0	0	0	0	512	528	
8	0	0	0	0	524	527	
9	0	0	0	0	527	511	
10	0	0	0	0	608	506	
11	0	0	0	0	677	500	
12	0	0	0	0	639	507	
13	0	0	0	0	480	494	
14	0	0	0	0	492	491	
15	0	0	0	0	542	481	
0	0	0	0	0	422	491	
1	0	0	0	0	221	506	
2	0	0	0	0	309	529	
3	0	0	0	0	447	551	
4	0	0	0	0	525	547	
5	0	0	0	0	531	525	
6	0	0	0	0	537	478	
7	0	0	0	0	637	431	
8	0	0	0	0	606	391	
9	0	0	0	0	539	389	
10	0	0	0	0	466	423	
11	0	0	0	0	371	489	
12	0	0	0	0	388	575	
13	0	0	0	0	420	632	
14	0	0	0	0	460	664	
15	0	0	0	0	455	664	
0	0	0	0	0	493	606	
1	0	0	0	0	527	556	
2	0	0	0	0	529	542	
3	0	0	0	0	520	500	
4	0	0	0	0	561	475	
5	0	0	0	0	626	485	
6	0	0	0	0	664	498	
7	0	0	0	0	615	527	
8	0	0	0	0	546	533	
9	0	0	0	0	513	522	
10	0	0	0	0	406	496	
11	0	0	0	0	323	483	
12	0	0	0	0	436	473	
13	0	0	0	0	455	488	
14	0	0	0	0	588	483	
15	0	0	0	0	672	466	
0	0	0	0	0	674	455	
1	0	0	0	0	645	468	
2	0	0	0	0	476	491	
3	0	0	0	0	494	535	
4	0	0	0	0	424	538	
5	0	0	0	0	396	504	
6	0	0	0	0	372	494	
7	0	0	0	0	424	482	
8	0	0	0	0	380	470	
9	0	0	0	0	364	496	
10	0	0	0	0	457	527	
11	0	0	0	0	494	542	
12	0	0	0	0	528	574	
13	0	0	0	0	538	611	
14	0	0	0	0	551	592	
15	0	0	0	0	542	536	
0	0	0	0	0	529	507	
1	0	0	0	0	497	496	
2	0	0	0	0	515	495	
3	0	0	0	0	594	489	
4	0	0	0	0	588	508	
5	0	0	0	0	551	501	
6	0	0	0	0	477	499	
7	0	0	0	0	531	508	
8	0	0	0	0	601	517	
9	0	0	0	0	480	500	
10	0	0	0	0	531	504	
11	0	0	0	0	565	514	
12	0	0	0	0	639	515	
13	0	0	0	0	500	478	
14	0	0	0	0	262	478	
15	0	0	0	0	326	500	
0	0	0	0	0	465	478	
1	0	0	0	0	597	416	
2	0	0	0	0	603	414	
3	0	0	0	0	558	497	
4	0	0	0	0	568	556	
5	0	0	0	0	588	504	
6	0	0	0	0	455	564	
7	0	0	0	0	456	646	
8	0	0	0	0	540	641	
9	0	0	0	0	543	606	
10	0	0	0	0	482	545	
11	0	0	0	0	369	484	
12	0	0	0	0	327	459	
13	0	0	0	0	315	456	
14	0	0	0	0	405	488	
15	0	0	0	0	509	513	
0	0	0	0	0	534	555	
1	0	0	0	0	540	553	
2	0	0	0	0	545	543	
3	0	0	0	0	543	513	
4	0	0	0	0	519	482	
5	0	0	0	0	517	455	
6	0	0	0	0	541	492	
7	0	0	0	0	579	511	
8	0	0	0	0	586	515	
9	0	0	0	0	588	510	
10	0	0	0	0	623	513	
11	0	0	0	0	567	504	
12	0	0	0	0	491	507	
13	0	0	0	0	457	502	
14	0	0	0	0	507	493	
15	0	0	0	0	515	504	
0	0	0	0	0	489	507	
1	0	0	0	0	465	515	
2	0	0	0	0	487	536	
3	0	0	0	0	508	548	
4	0	0	0	0	515	550	
5	0	0	0	0	556	518	
6	0	0	0	0	475	488	
7	0	0	0	0	416	483	
8	0	0	0	0	515	477	
9	0	0	0	0	458	484	
10	0	0	0	0	447	496	
11	0	0	0	0	396	496	
12	0	0	0	0	490	516	
13	0	0	0	0	588	522	
14	0	0	0	0	634	519	
15	0	0	0	0	700	473	
0	0	0	0	0	664	448	
1	0	0	0	0	518	464	
2	0	0	0	0	452	496	
3	0	0	0	0	363	526	
4	0	0	0	0	364	596	
5	0	0	0	0	316	560	
6	0	0	0	0	351	441	
7	0	0	0	0	443	439	
8	0	0	0	0	551	459	
9	0	0	0	0	593	494	
10	0	0	0	0	554	535	
11	0	0	0	0	521	578	
12	0	0	0	0	489	578	
13	0	0	0	0	492	573	
14	0	0	0	0	474	581	
15	0	0	0	0	487	582	
0	0	0	0	0	492	581	
1	0	0	0	0	499	567	
2	0	0	0	0	544	559	
3	0	0	0	0	572	527	
4	0	0	0	0	617	475	
5	0	0	0	0	600	465	
6	0	0	0	0	624	452	
7	0	0	0	0	548	443	
8	0	0	0	0	462	460	
9	0	0	0	0	477	480	
10	0	0	0	0	445	488	
11	0	0	0	0	480	492	
12	0	0	0	0	450	473	
13	0	0	0	0	431	447	
14	0	0	0	0	462	465	
15	0	0	0	0	468	496	
0	0	0	0	0	470	524	
1	0	0	0	0	502	529	
2	0	0	0	0	524	560	
3	0	0	0	0	561	563	
4	0	0	0	0	574	582	
5	0	0	0	0	571	589	
6	0	0	0	0	579	573	
7	0	0	0	0	555	547	
8	0	0	0	0	543	499	
9	0	0	0	0	537	492	
10	0	0	0	0	542	480	
11	0	0	0	0	446	505	
12	0	0	0	0	404	512	
13	0	0	0	0	366	480	
14	0	0	0	0	424	435	
15	0	0	0	0	472	430	
0	0	0	0	0	481	441	
1	0	0	0	0	485	467	
2	0	0	0	0	452	508	
3	0	0	0	0	505	581	
4	0	0	0	0	547	626	
5	0	0	0	0	532	597	
6	0	0	0	0	534	537	
7	0	0	0	0	540	482	
8	0	0	0	0	572	460	
9	0	0	0	0	580	464	
10	0	0	0	0	536	506	
11	0	0	0	0	555	537	
12	0	0	0	0	576	567	
13	0	0	0	0	564	584	
14	0	0	0	0	491	558	
15	0	0	0	0	387	505	
0	0	0	0	0	452	479	
1	0	0	0	0	470	496	
2	0	0	0	0	437	518	
3	0	0	0	0	438	507	
4	0	0	0	0	428	496	
5	0	0	0	0	581	507	
6	0	0	0	0	575	493	
7	0	0	0	0	593	476	
8	0	0	0	0	583	457	
9	0	0	0	0	545	464	
10	0	0	0	0	547	477	
11	0	0	0	0	494	492	
12	0	0	0	0	437	509	
13	0	0	0	0	415	532	
14	0	0	0	0	464	547	
15	0	0	0	0	459	549	
0	0	0	0	0	443	541	
1	0	0	0	0	444	508	
2	0	0	0	0	476	487	
3	0	0	0	0	521	495	
4	0	0	0	0	541	508	
5	0	0	0	0	568	532	
6	0	0	0	0	611	578	
7	0	0	0	0	642	575	
8	0	0	0	0	624	566	
9	0	0	0	0	541	513	
10	0	0	0	0	480	486	
11	0	0	0	0	463	452	
12	0	0	0	0	291	430	
13	0	0	0	0	312	455	
14	0	0	0	0	494	493	
15	0	0	0	0	476	464	
0	0	0	0	0	492	449	
1	0	0	0	0	530	465	
2	0	0	0	0	539	505	
3	0	0	0	0	509	529	
4	0	0	0	0	524	605	
5	0	0	0	0	542	679	
6	0	0	0	0	532	625	
7	0	0	0	0	532	567	
8	0	0	0	0	543	537	
9	0	0	0	0	590	524	
10	0	0	0	0	549	487	
11	0	0	0	0	449	462	
12	0	0	0	0	407	487	
13	0	0	0	0	536	481	
14	0	0	0	0	580	481	
15	0	0	0	0	492	480	
0	0	0	0	0	487	473	
1	0	0	0	0	519	455	
2	0	0	0	0	476	447	
3	0	0	0	0	425	481	
4	0	0	0	0	489	524	
5	0	0	0	0	507	572	
6	0	0	0	0	499	611	
7	0	0	0	0	531	608	
8	0	0	0	0	523	593	
9	0	0	0	0	551	554	
10	0	0	0	0	531	489	
11	0	0	0	0	512	452	
12	0	0	0	0	531	445	
13	0	0	0	0	512	432	
14	0	0	0	0	456	453	
15	0	0	0	0	475	478	
0	0	0	0	0	512	526	
1	0	0	0	0	503	531	
2	0	0	0	0	487	496	
3	0	0	0	0	497	492	
4	0	0	0	0	496	510	
5	0	0	0	0	522	518	
6	0	0	0	0	571	519	
7	0	0	0	0	524	524	
8	0	0	0	0	471	552	
9	0	0	0	0	503	548	
10	0	0	0	0	579	528	
11	0	0	0	0	613	511	
12	0	0	0	0	639	510	
13	0	0	0	0	566	547	
14	0	0	0	0	465	515	
15	0	0	0	0	443	497	
0	0	0	0	0	421	489	
1	0	0	0	0	399	540	
2	0	0	0	0	463	532	
3	0	0	0	0	418	479	
4	0	0	0	0	382	423	
5	0	0	0	0	363	402	
6	0	0	0	0	439	441	
7	0	0	0	0	472	496	
8	0	0	0	0	511	551	
9	0	0	0	0	591	619	
10	0	0	0	0	668	600	
11	0	0	0	0	684	576	
12	0	0	0	0	627	588	
13	0	0	0	0	491	576	
14	0	0	0	0	440	491	
15	0	0	0	0	443	430	
0	0	0	0	0	398	397	
1	0	0	0	0	485	393	
2	0	0	0	0	598	441	
3	0	0	0	0	554	549	
4	0	0	0	0	486	584	
5	0	0	0	0	468	642	
6	0	0	0	0	484	622	
7	0	0	0	0	505	579	
8	0	0	0	0	483	551	
9	0	0	0	0	441	498	
10	0	0	0	0	491	463	
11	0	0	0	0	516	446	
12	0	0	0	0	491	465	
13	0	0	0	0	491	474	
14	0	0	0	0	509	475	
15	0	0	0	0	513	467	
0	0	0	0	0	504	485	
1	0	0	0	0	544	510	
2	0	0	0	0	582	519	
3	0	0	0	0	572	555	
4	0	0	0	0	584	581	
5	0	0	0	0	613	537	
6	0	0	0	0	636	485	
7	0	0	0	0	469	468	
8	0	0	0	0	449	444	
9	0	0	0	0	443	470	
10	0	0	0	0	426	526	
11	0	0	0	0	457	557	
12	0	0	0	0	428	568	
13	0	0	0	0	365	550	
14	0	0	0	0	467	545	
15	0	0	0	0	506	524	
0	0	0	0	0	504	502	
1	0	0	0	0	509	513	
2	0	0	0	0	549	521	
3	0	0	0	0	579	514	
4	0	0	0	0	568	510	
5	0	0	0	0	528	483	
6	0	0	0	0	527	478	
7	0	0	0	0	564	492	
8	0	0	0	0	533	492	
9	0	0	0	0	502	504	
10	0	0	0	0	536	504	
11	0	0	0	0	528	519	
12	0	0	0	0	498	521	
13	0	0	0	0	397	522	
14	0	0	0	0	387	529	
15	0	0	0	0	483	515	
0	0	0	0	0	480	512	
1	0	0	0	0	502	500	
2	0	0	0	0	453	427	
3	0	0	0	0	483	413	
4	0	0	0	0	653	478	
5	0	0	0	0	625	509	
6	0	0	0	0	536	516	
7	0	0	0	0	507	550	
8	0	0	0	0	457	574	
9	0	0	0	0	442	543	
10	0	0	0	0	441	506	
11	0	0	0	0	483	521	
12	0	0	0	0	591	539	
13	0	0	0	0	556	564	
14	0	0	0	0	489	585	
15	0	0	0	0	537	562	
0	0	0	0	0	521	508	
1	0	0	0	0	377	471	
2	0	0	0	0	336	473	
3	0	0	0	0	515	463	
4	0	0	0	0	575	474	
5	0	0	0	0	580	496	
6	0	0	0	0	562	500	
7	0	0	0	0	523	479	
8	0	0	0	0	446	516	
9	0	0	0	0	419	582	
10	0	0	0	0	396	577	
11	0	0	0	0	453	562	
12	0	0	0	0	480	533	
13	0	0	0	0	558	478	
14	0	0	0	0	585	452	
15	0	0	0	0	673	492	
0	0	0	0	0	702	537	
1	0	0	0	0	639	535	
2	0	0	0	0	497	530	
3	0	0	0	0	444	524	
4	0	0	0	0	367	450	
5	0	0	0	0	336	406	
6	0	0	0	0	333	425	
7	0	0	0	0	505	486	
8	0	0	0	0	528	536	
9	0	0	0	0	555	564	
10	0	0	0	0	582	581	
11	0	0	0	0	534	575	
12	0	0	0	0	495	559	
13	0	0	0	0	513	532	
14	0	0	0	0	535	527	
15	0	0	0	0	543	512	
0	0	0	0	0	523	506	
1	0	0	0	0	501	505	
2	0	0	0	0	468	489	
3	0	0	0	0	468	495	
4	0	0	0	0	470	483	
5	0	0	0	0	496	492	
6	0	0	0	0	532	476	
7	0	0	0	0	499	497	
8	0	0	0	0	489	521	
9	0	0	0	0	575	505	
10	0	0	0	0	601	466	
11	0	0	0	0	636	520	
12	0	0	0	0	655	571	
13	0	0	0	0	519	533	
14	0	0	0	0	451	536	
15	0	0	0	0	375	539	
0	0	0	0	0	372	531	
1	0	0	0	0	433	502	
2	0	0	0	0	443	477	
3	0	0	0	0	451	497	
4	0	0	0	0	497	519	
5	0	0	0	0	497	541	
6	0	0	0	0	502	537	
7	0	0	0	0	591	511	
8	0	0	0	0	574	502	
9	0	0	0	0	506	492	
10	0	0	0	0	547	492	
11	0	0	0	0	547	489	
12	0	0	0	0	515	501	
13	0	0	0	0	454	512	
14	0	0	0	0	476	517	
15	0	0	0	0	452	486	
0	0	0	0	0	473	480	
1	0	0	0	0	444	493	
2	0	0	0	0	472	515	
3	0	0	0	0	508	534	
4	0	0	0	0	501	533	
5	0	0	0	0	500	547	
6	0	0	0	0	512	532	
7	0	0	0	0	511	507	
8	0	0	0	0	520	490	
9	0	0	0	0	569	512	
10	0	0	0	0	597	518	
11	0	0	0	0	628	505	
12	0	0	0	0	574	513	
13	0	0	0	0	583	515	
14	0	0	0	0	475	457	
15	0	0	0	0	382	491	
0	0	0	0	0	434	498	
1	0	0	0	0	343	509	
2	0	0	0	0	432	521	
3	0	0	0	0	536	486	
4	0	0	0	0	548	450	
5	0	0	0	0	510	456	
6	0	0	0	0	493	512	
7	0	0	0	0	546	546	
8	0	0	0	0	598	552	
9	0	0	0	0	641	602	
10	0	0	0	0	651	611	
11	0	0	0	0	622	600	
12	0	0	0	0	527	597	
13	0	0	0	0	457	536	
14	0	0	0	0	320	494	
15	0	0	0	0	338	483	
0	0	0	0	0	347	470	
1	0	0	0	0	479	458	
2	0	0	0	0	510	466	
3	0	0	0	0	531	476	
4	0	0	0	0	526	489	
5	0	0	0	0	440	496	
6	0	0	0	0	487	503	
7	0	0	0	0	478	508	
8	0	0	0	0	482	509	
9	0	0	0	0	516	530	
10	0	0	0	0	574	519	
11	0	0	0	0	562	513	
12	0	0	0	0	545	516	
13	0	0	0	0	539	552	
14	0	0	0	0	552	510	
15	0	0	0	0	519	486	
0	0	0	0	0	583	487	
1	0	0	0	0	651	494	
2	0	0	0	0	626	513	
3	0	0	0	0	560	530	
4	0	0	0	0	527	504	
5	0	0	0	0	355	489	
6	0	0	0	0	359	456	
7	0	0	0	0	340	472	
8	0	0	0	0	392	529	
9	0	0	0	0	514	563	
10	0	0	0	0	551	555	
11	0	0	0	0	536	563	
12	0	0	0	0	504	536	
13	0	0	0	0	483	494	
14	0	0	0	0	391	480	
15	0	0	0	0	420	518	
0	0	0	0	0	512	536	
1	0	0	0	0	527	555	
2	0	0	0	0	473	547	
3	0	0	0	0	526	534	
4	0	0	0	0	593	487	
5	0	0	0	0	612	470	
6	0	0	0	0	598	481	
7	0	0	0	0	611	492	
8	0	0	0	0	606	517	
9	0	0	0	0	444	513	
10	0	0	0	0	508	523	
11	0	0	0	0	452	496	
12	0	0	0	0	428	502	
13	0	0	0	0	425	498	
14	0	0	0	0	487	493	
15	0	0	0	0	540	499	
0	0	0	0	0	518	525	
1	0	0	0	0	521	501	
2	0	0	0	0	619	455	
3	0	0	0	0	567	493	
4	0	0	0	0	456	436	
5	0	0	0	0	465	391	
6	0	0	0	0	496	468	
7	0	0	0	0	521	529	
8	0	0	0	0	434	595	
9	0	0	0	0	362	632	
10	0	0	0	0	414	616	
11	0	0	0	0	519	578	
12	0	0	0	0	627	571	
13	0	0	0	0	572	552	
14	0	0	0	0	440	521	
15	0	0	0	0	444	506	
0	0	0	0	0	468	497	
1	0	0	0	0	494	497	
2	0	0	0	0	515	503	
3	0	0	0	0	525	513	
4	0	0	0	0	528	510	
5	0	0	0	0	527	498	
6	0	0	0	0	523	491	
7	0	0	0	0	521	500	
8	0	0	0	0	506	501	
9	0	0	0	0	491	510	
10	0	0	0	0	502	531	
11	0	0	0	0	523	533	
12	0	0	0	0	557	534	
13	0	0	0	0	623	513	
14	0	0	0	0	604	480	
15	0	0	0	0	566	460	
0	0	0	0	0	448	466	
1	0	0	0	0	441	497	
2	0	0	0	0	333	519	
3	0	0	0	0	369	519	
4	0	0	0	0	539	514	
5	0	0	0	0	587	537	
6	0	0	0	0	560	560	
7	0	0	0	0	529	550	
8	0	0	0	0	457	518	
9	0	0	0	0	441	504	
10	0	0	0	0	478	474	
11	0	0	0	0	571	459	
12	0	0	0	0	647	480	
13	0	0	0	0	670	497	
14	0	0	0	0	668	498	
15	0	0	0	0	504	498	
0	0	0	0	0	414	484	
1	0	0	0	0	309	498	
2	0	0	0	0	436	510	
3	0	0	0	0	455	499	
4	0	0	0	0	376	493	
5	0	0	0	0	420	510	
6	0	0	0	0	425	528	
7	0	0	0	0	471	547	
8	0	0	0	0	494	566	
9	0	0	0	0	516	571	
10	0	0	0	0	525	558	
11	0	0	0	0	544	506	
12	0	0	0	0	561	463	
13	0	0	0	0	578	455	
14	0	0	0	0	580	502	
15	0	0	0	0	551	513	
0	0	0	0	0	465	537	
1	0	0	0	0	412	568	
2	0	0	0	0	551	600	
3	0	0	0	0	668	595	
4	0	0	0	0	643	536	
5	0	0	0	0	644	482	
6	0	0	0	0	623	463	
7	0	0	0	0	490	465	
8	0	0	0	0	535	449	
9	0	0	0	0	596	470	
10	0	0	0	0	392	449	
11	0	0	0	0	179	452	
12	0	0	0	0	190	487	
13	0	0	0	0	390	510	
14	0	0	0	0	450	526	
15	0	0	0	0	497	533	
0	0	0	0	0	495	538	
1	0	0	0	0	515	545	
2	0	0	0	0	528	545	
3	0	0	0	0	536	541	
4	0	0	0	0	531	531	
5	0	0	0	0	537	539	
6	0	0	0	0	535	538	
7	0	0	0	0	531	523	
8	0	0	0	0	531	498	
9	0	0	0	0	536	464	
10	0	0	0	0	531	451	
11	0	0	0	0	531	474	
12	0	0	0	0	529	503	
13	0	0	0	0	526	509	
14	0	0	0	0	553	535	
15	0	0	0	0	595	546	
0	0	0	0	0	578	526	
1	0	0	0	0	556	519	
2	0	0	0	0	526	532	
3	0	0	0	0	482	528	
4	0	0	0	0	350	538	
5	0	0	0	0	310	539	
6	0	0	0	0	447	492	
7	0	0	0	0	454	474	
8	0	0	0	0	493	465	
9	0	0	0	0	571	452	
10	0	0	0	0	596	465	
11	0	0	0	0	582	496	
12	0	0	0	0	532	501	
13	0	0	0	0	518	508	
14	0	0	0	0	501	548	
15	0	0	0	0	492	603	
0	0	0	0	0	513	600	
1	0	0	0	0	499	560	
2	0	0	0	0	494	529	
3	0	0	0	0	493	515	
4	0	0	0	0	567	508	
5	0	0	0	0	527	489	
6	0	0	0	0	519	478	
7	0	0	0	0	508	478	
8	0	0	0	0	477	483	
9	0	0	0	0	422	508	
10	0	0	0	0	465	532	
11	0	0	0	0	525	500	
12	0	0	0	0	596	448	
13	0	0	0	0	593	448	
14	0	0	0	0	612	463	
15	0	0	0	0	596	515	
0	0	0	0	0	527	576	
1	0	0	0	0	408	617	
2	0	0	0	0	382	528	
3	0	0	0	0	390	459	
4	0	0	0	0	333	453	
5	0	0	0	0	374	465	
6	0	0	0	0	481	475	
7	0	0	0	0	524	499	
8	0	0	0	0	507	533	
9	0	0	0	0	483	564	
10	0	0	0	0	486	599	
11	0	0	0	0	539	572	
12	0	0	0	0	648	575	
13	0	0	0	0	698	564	
14	0	0	0	0	655	526	
15	0	0	0	0	583	478	
0	0	0	0	0	472	456	
1	0	0	0	0	423	481	
2	0	0	0	0	324	493	
3	0	0	0	0	384	481	
4	0	0	0	0	474	486	
5	0	0	0	0	496	501	
6	0	0	0	0	504	515	
7	0	0	0	0	509	499	
8	0	0	0	0	506	491	
9	0	0	0	0	521	493	
10	0	0	0	0	532	503	
11	0	0	0	0	531	538	
12	0	0	0	0	554	568	
13	0	0	0	0	532	563	
14	0	0	0	0	484	526	
15	0	0	0	0	498	507	
0	0	0	0	0	497	502	
1	0	0	0	0	514	487	
2	0	0	0	0	524	513	
3	0	0	0	0	519	520	
4	0	0	0	0	510	516	
5	0	0	0	0	521	527	
6	0	0	0	0	562	531	
7	0	0	0	0	509	515	
8	0	0	0	0	478	516	
9	0	0	0	0	525	477	
10	0	0	0	0	596	483	
11	0	0	0	0	620	496	
12	0	0	0	0	553	501	
13	0	0	0	0	451	507	
14	0	0	0	0	354	499	
15	0	0	0	0	339	467	
0	0	0	0	0	444	481	
1	0	0	0	0	509	526	
2	0	0	0	0	461	532	
3	0	0	0	0	490	523	
4	0	0	0	0	495	524	
5	0	0	0	0	487	515	
6	0	0	0	0	487	510	
7	0	0	0	0	494	519	
8	0	0	0	0	497	535	
9	0	0	0	0	509	545	
10	0	0	0	0	514	527	
11	0	0	0	0	527	504	
12	0	0	0	0	562	494	
13	0	0	0	0	588	499	
14	0	0	0	0	588	512	
15	0	0	0	0	532	507	
0	0	0	0	0	477	509	
1	0	0	0	0	483	513	
2	0	0	0	0	518	524	
3	0	0	0	0	548	518	
4	0	0	0	0	564	527	
5	0	0	0	0	571	527	
6	0	0	0	0	559	526	
7	0	0	0	0	519	525	
8	0	0	0	0	528	509	
9	0	0	0	0	487	392	
10	0	0	0	0	409	339	
11	0	0	0	0	451	417	
12	0	0	0	0	437	501	
13	0	0	0	0	400	600	
14	0	0	0	0	391	708	
15	0	0	0	0	503	647	
0	0	0	0	0	458	582	
1	0	0	0	0	457	507	
2	0	0	0	0	536	486	
3	0	0	0	0	585	474	
4	0	0	0	0	503	477	
5	0	0	0	0	567	490	
6	0	0	0	0	589	509	
7	0	0	0	0	546	511	
8	0	0	0	0	530	503	
9	0	0	0	0	504	486	
10	0	0	0	0	477	478	
11	0	0	0	0	444	509	
12	0	0	0	0	492	544	
13	0	0	0	0	529	554	
14	0	0	0	0	529	548	
15	0	0	0	0	537	533	
0	0	0	0	0	507	503	
1	0	0	0	0	448	478	
2	0	0	0	0	520	485	
3	0	0	0	0	545	483	
4	0	0	0	0	523	475	
5	0	0	0	0	440	480	
6	0	0	0	0	408	508	
7	0	0	0	0	489	526	
8	0	0	0	0	529	528	
9	0	0	0	0	543	530	
10	0	0	0	0	508	542	
11	0	0	0	0	508	547	
12	0	0	0	0	524	534	
13	0	0	0	0	523	547	
14	0	0	0	0	485	526	
15	0	0	0	0	565	497	
0	0	0	0	0	600	537	
1	0	0	0	0	508	532	
2	0	0	0	0	453	480	
3	0	0	0	0	472	472	
4	0	0	0	0	575	478	
5	0	0	0	0	458	475	
6	0	0	0	0	462	463	
7	0	0	0	0	594	482	
8	0	0	0	0	557	477	
9	0	0	0	0	386	500	
10	0	0	0	0	376	511	
11	0	0	0	0	482	519	
12	0	0	0	0	511	533	
13	0	0	0	0	507	536	
14	0	0	0	0	497	536	
15	0	0	0	0	507	532	
0	0	0	0	0	524	552	
1	0	0	0	0	515	530	
2	0	0	0	0	524	499	
3	0	0	0	0	533	502	
4	0	0	0	0	536	512	
5	0	0	0	0	524	489	
6	0	0	0	0	544	503	
7	0	0	0	0	568	533	
8	0	0	0	0	508	489	
9	0	0	0	0	553	483	
10	0	0	0	0	541	518	
11	0	0	0	0	446	524	
12	0	0	0	0	416	496	
13	0	0	0	0	445	487	
14	0	0	0	0	475	532	
15	0	0	0	0	498	518	
0	0	0	0	0	474	546	
1	0	0	0	0	487	596	
2	0	0	0	0	536	566	
3	0	0	0	0	492	542	
4	0	0	0	0	492	517	
5	0	0	0	0	568	485	
6	0	0	0	0	503	475	
7	0	0	0	0	479	501	
8	0	0	0	0	541	497	
9	0	0	0	0	654	481	
10	0	0	0	0	559	476	
11	0	0	0	0	450	489	
12	0	0	0	0	461	485	
13	0	0	0	0	519	491	
14	0	0	0	0	465	484	
15	0	0	0	0	392	488	
0	0	0	0	0	465	505	
1	0	0	0	0	505	520	
2	0	0	0	0	524	547	
3	0	0	0	0	524	565	
4	0	0	0	0	551	571	
5	0	0	0	0	586	546	
6	0	0	0	0	591	539	
7	0	0	0	0	535	506	
8	0	0	0	0	513	519	
9	0	0	0	0	433	502	
10	0	0	0	0	343	483	
11	0	0	0	0	395	466	
12	0	0	0	0	479	475	
13	0	0	0	0	551	476	
14	0	0	0	0	568	515	
15	0	0	0	0	585	530	
0	0	0	0	0	534	530	
1	0	0	0	0	438	543	
2	0	0	0	0	423	534	
3	0	0	0	0	478	504	
4	0	0	0	0	508	494	
5	0	0	0	0	529	488	
6	0	0	0	0	520	512	
7	0	0	0	0	531	543	
8	0	0	0	0	570	537	
9	0	0	0	0	598	510	
10	0	0	0	0	573	508	
11	0	0	0	0	543	507	
12	0	0	0	0	492	497	
13	0	0	0	0	460	485	
14	0	0	0	0	434	476	
15	0	0	0	0	403	495	
0	0	0	0	0	435	511	
1	0	0	0	0	529	527	
2	0	0	0	0	531	534	
3	0	0	0	0	541	533	
4	0	0	0	0	558	505	
5	0	0	0	0	542	501	
6	0	0	0	0	500	501	
7	0	0	0	0	534	501	
8	0	0	0	0	561	484	
9	0	0	0	0	564	476	
10	0	0	0	0	438	514	
11	0	0	0	0	335	569	
12	0	0	0	0	394	570	
13	0	0	0	0	518	576	
14	0	0	0	0	587	519	
15	0	0	0	0	604	474	
0	0	0	0	0	585	428	
1	0	0	0	0	490	414	
2	0	0	0	0	310	457	
3	0	0	0	0	411	492	
4	0	0	0	0	538	514	
5	0	0	0	0	585	588	
6	0	0	0	0	609	567	
7	0	0	0	0	605	564	
8	0	0	0	0	511	568	
9	0	0	0	0	492	539	
10	0	0	0	0	444	535	
11	0	0	0	0	460	542	
12	0	0	0	0	408	551	
13	0	0	0	0	396	515	
14	0	0	0	0	485	496	
15	0	0	0	0	503	480	
0	0	0	0	0	531	477	
1	0	0	0	0	575	478	
2	0	0	0	0	565	492	
3	0	0	0	0	518	527	
4	0	0	0	0	520	508	
5	0	0	0	0	499	505	
6	0	0	0	0	500	538	
7	0	0	0	0	505	536	
8	0	0	0	0	560	529	
9	0	0	0	0	568	518	
10	0	0	0	0	534	503	
11	0	0	0	0	507	488	
12	0	0	0	0	541	508	
13	0	0	0	0	531	476	
14	0	0	0	0	443	442	
15	0	0	0	0	427	480	
0	0	0	0	0	493	526	
1	0	0	0	0	518	521	
2	0	0	0	0	503	507	
3	0	0	0	0	554	518	
4	0	0	0	0	604	527	
5	0	0	0	0	534	508	
6	0	0	0	0	444	505	
7	0	0	0	0	453	498	
8	0	0	0	0	435	508	
9	0	0	0	0	437	519	
10	0	0	0	0	496	518	
11	0	0	0	0	481	513	
12	0	0	0	0	526	508	
13	0	0	0	0	535	508	
14	0	0	0	0	496	523	
15	0	0	0	0	394	533	
0	0	0	0	0	458	555	
1	0	0	0	0	531	574	
2	0	0	0	0	588	532	
3	0	0	0	0	645	484	
4	0	0	0	0	662	452	
5	0	0	0	0	547	453	
6	0	0	0	0	566	484	
7	0	0	0	0	550	508	
8	0	0	0	0	366	528	
9	0	0	0	0	309	519	
10	0	0	0	0	339	506	
11	0	0	0	0	431	507	
12	0	0	0	0	492	515	
13	0	0	0	0	534	531	
14	0	0	0	0	556	534	
15	0	0	0	0	543	529	
0	0	0	0	0	524	514	
1	0	0	0	0	496	511	
2	0	0	0	0	492	519	
3	0	0	0	0	520	521	
4	0	0	0	0	518	527	
5	0	0	0	0	522	528	
6	0	0	0	0	532	512	
7	0	0	0	0	531	494	
8	0	0	0	0	523	490	
9	0	0	0	0	547	479	
10	0	0	0	0	515	511	
11	0	0	0	0	489	540	
12	0	0	0	0	564	549	
13	0	0	0	0	597	535	
14	0	0	0	0	533	503	
15	0	0	0	0	447	425	
0	0	0	0	0	466	385	
1	0	0	0	0	436	407	
2	0	0	0	0	317	484	
3	0	0	0	0	444	541	
4	0	0	0	0	584	595	
5	0	0	0	0	580	585	
6	0	0	0	0	548	612	
7	0	0	0	0	590	606	
8	0	0	0	0	576	565	
9	0	0	0	0	575	524	
10	0	0	0	0	516	513	
11	0	0	0	0	474	483	
12	0	0	0	0	443	491	
13	0	0	0	0	430	496	
14	0	0	0	0	480	496	
15	0	0	0	0	487	488	
0	0	0	0	0	412	480	
1	0	0	0	0	396	505	
2	0	0	0	0	610	531	
3	0	0	0	0	660	534	
4	0	0	0	0	577	525	
5	0	0	0	0	521	499	
6	0	0	0	0	471	480	
7	0	0	0	0	401	484	
8	0	0	0	0	469	499	
9	0	0	0	0	500	470	
10	0	0	0	0	419	448	
11	0	0	0	0	447	468	
12	0	0	0	0	497	495	
13	0	0	0	0	514	524	
14	0	0	0	0	514	573	
15	0	0	0	0	514	582	
0	0	0	0	0	545	575	
1	0	0	0	0	573	543	
2	0	0	0	0	567	510	
3	0	0	0	0	549	492	
4	0	0	0	0	534	473	
5	0	0	0	0	540	479	
6	0	0	0	0	507	504	
7	0	0	0	0	512	525	
8	0	0	0	0	489	531	
9	0	0	0	0	483	529	
10	0	0	0	0	428	552	
11	0	0	0	0	458	528	
12	0	0	0	0	499	501	
13	0	0	0	0	504	495	
14	0	0	0	0	467	496	
15	0	0	0	0	409	500	
0	0	0	0	0	451	510	
1	0	0	0	0	496	510	
2	0	0	0	0	540	507	
3	0	0	0	0	531	503	
4	0	0	0	0	532	499	
5	0	0	0	0	527	482	
6	0	0	0	0	539	489	
7	0	0	0	0	594	495	
8	0	0	0	0	560	502	
9	0	0	0	0	497	489	
10	0	0	0	0	491	508	
11	0	0	0	0	502	565	
12	0	0	0	0	519	609	
13	0	0	0	0	532	600	
14	0	0	0	0	560	563	
15	0	0	0	0	548	525	
0	0	0	0	0	506	473	
1	0	0	0	0	439	483	
2	0	0	0	0	355	495	
3	0	0	0	0	394	499	
4	0	0	0	0	547	470	
5	0	0	0	0	694	453	
6	0	0	0	0	692	487	
7	0	0	0	0	589	488	
8	0	0	0	0	559	484	
9	0	0	0	0	474	519	
10	0	0	0	0	275	515	
11	0	0	0	0	265	519	
12	0	0	0	0	387	529	
13	0	0	0	0	455	520	
14	0	0	0	0	529	491	
15	0	0	0	0	549	493	
0	0	0	0	0	516	499	
1	0	0	0	0	543	531	
2	0	0	0	0	540	531	
3	0	0	0	0	477	519	
4	0	0	0	0	529	514	
5	0	0	0	0	597	525	
6	0	0	0	0	550	511	
7	0	0	0	0	529	516	
8	0	0	0	0	534	528	
9	0	0	0	0	534	526	
10	0	0	0	0	519	513	
11	0	0	0	0	478	514	
12	0	0	0	0	474	519	
13	0	0	0	0	425	513	
14	0	0	0	0	449	504	
15	0	0	0	0	487	512	
0	0	0	0	0	491	510	
1	0	0	0	0	489	492	
2	0	0	0	0	488	491	
3	0	0	0	0	525	519	
4	0	0	0	0	553	528	
5	0	0	0	0	559	492	
6	0	0	0	0	550	474	
7	0	0	0	0	588	503	
8	0	0	0	0	578	534	
9	0	0	0	0	499	547	
10	0	0	0	0	475	524	
11	0	0	0	0	473	489	
12	0	0	0	0	492	488	
13	0	0	0	0	475	499	
14	0	0	0	0	473	519	
15	0	0	0	0	516	556	
0	0	0	0	0	539	577	
1	0	0	0	0	455	563	
2	0	0	0	0	431	542	
3	0	0	0	0	467	515	
4	0	0	0	0	514	520	
5	0	0	0	0	491	504	
6	0	0	0	0	518	492	
7	0	0	0	0	512	449	
8	0	0	0	0	504	460	
9	0	0	0	0	548	504	
10	0	0	0	0	579	492	
11	0	0	0	0	589	497	
12	0	0	0	0	519	522	
13	0	0	0	0	543	507	
14	0	0	0	0	458	505	
15	0	0	0	0	455	530	
0	0	0	0	0	420	502	
1	0	0	0	0	461	507	
2	0	0	0	0	480	519	
3	0	0	0	0	512	528	
4	0	0	0	0	536	532	
5	0	0	0	0	543	531	
6	0	0	0	0	538	517	
7	0	0	0	0	479	487	
8	0	0	0	0	445	483	
9	0	0	0	0	448	487	
10	0	0	0	0	497	504	
11	0	0	0	0	513	508	
12	0	0	0	0	556	531	
13	0	0	0	0	578	532	
14	0	0	0	0	504	508	
15	0	0	0	0	495	506	
0	0	0	0	0	533	504	
1	0	0	0	0	450	509	
2	0	0	0	0	455	513	
3	0	0	0	0	484	518	
4	0	0	0	0	497	526	
5	0	0	0	0	511	523	
6	0	0	0	0	510	515	
7	0	0	0	0	507	514	
8	0	0	0	0	508	513	
9	0	0	0	0	508	511	
10	0	0	0	0	511	507	
11	0	0	0	0	513	524	
12	0	0	0	0	509	518	
13	0	0	0	0	507	505	
14	0	0	0	0	511	506	
15	0	0	0	0	516	508	
0	0	0	0	0	519	502	
1	0	0	0	0	522	498	
2	0	0	0	0	531	480	
3	0	0	0	0	525	483	
4	0	0	0	0	514	508	
5	0	0	0	0	568	532	
6	0	0	0	0	580	528	
7	0	0	0	0	544	537	
8	0	0	0	0	522	572	
9	0	0	0	0	495	577	
10	0	0	0	0	503	569	
11	0	0	0	0	452	556	
12	0	0	0	0	443	495	
13	0	0	0	0	559	457	
14	0	0	0	0	594	462	
15	0	0	0	0	448	479	
0	0	0	0	0	525	464	
1	0	0	0	0	534	463	
2	0	0	0	0	395	473	
3	0	0	0	0	381	485	
4	0	0	0	0	422	477	
5	0	0	0	0	433	488	
6	0	0	0	0	388	520	
7	0	0	0	0	462	542	
8	0	0	0	0	492	566	
9	0	0	0	0	482	584	
10	0	0	0	0	503	565	
11	0	0	0	0	526	539	
12	0	0	0	0	539	531	
13	0	0	0	0	543	497	
14	0	0	0	0	570	467	
15	0	0	0	0	594	441	
0	0	0	0	0	592	470	
1	0	0	0	0	634	502	
2	0	0	0	0	560	524	
3	0	0	0	0	446	524	
4	0	0	0	0	429	538	
5	0	0	0	0	534	576	
6	0	0	0	0	536	560	
7	0	0	0	0	453	520	
8	0	0	0	0	528	513	
9	0	0	0	0	565	479	
10	0	0	0	0	509	437	
11	0	0	0	0	467	444	
12	0	0	0	0	443	475	
13	0	0	0	0	470	509	
14	0	0	0	0	482	543	
15	0	0	0	0	485	597	
0	0	0	0	0	484	590	
1	0	0	0	0	497	532	
2	0	0	0	0	515	518	
3	0	0	0	0	522	527	
4	0	0	0	0	511	536	
5	0	0	0	0	516	524	
6	0	0	0	0	536	515	
7	0	0	0	0	525	505	
8	0	0	0	0	510	455	
9	0	0	0	0	514	444	
10	0	0	0	0	535	469	
11	0	0	0	0	541	488	
12	0	0	0	0	600	504	
13	0	0	0	0	710	480	
14	0	0	0	0	625	428	
15	0	0	0	0	439	444	
0	0	0	0	0	349	556	
1	0	0	0	0	360	561	
2	0	0	0	0	374	533	
3	0	0	0	0	441	558	
4	0	0	0	0	473	576	
5	0	0	0	0	510	529	
6	0	0	0	0	557	533	
7	0	0	0	0	556	540	
8	0	0	0	0	492	528	
9	0	0	0	0	393	519	
10	0	0	0	0	367	517	
11	0	0	0	0	414	510	
12	0	0	0	0	474	509	
13	0	0	0	0	531	513	
14	0	0	0	0	532	514	
15	0	0	0	0	535	498	
0	0	0	0	0	536	485	
1	0	0	0	0	527	488	
2	0	0	0	0	537	490	
3	0	0	0	0	530	502	
4	0	0	0	0	532	538	
5	0	0	0	0	604	518	
6	0	0	0	0	583	492	
7	0	0	0	0	566	492	
8	0	0	0	0	511	502	
9	0	0	0	0	511	522	
10	0	0	0	0	513	518	
11	0	0	0	0	494	519	
12	0	0	0	0	489	527	
13	0	0	0	0	493	531	
14	0	0	0	0	509	521	
15	0	0	0	0	519	525	
0	0	0	0	0	518	525	
1	0	0	0	0	497	483	
2	0	0	0	0	486	455	
3	0	0	0	0	453	465	
4	0	0	0	0	419	525	
5	0	0	0	0	545	556	
6	0	0	0	0	574	557	
7	0	0	0	0	675	516	
8	0	0	0	0	799	513	
9	0	0	0	0	747	507	
10	0	0	0	0	352	485	
11	0	0	0	0	217	483	
12	0	0	0	0	411	498	
13	0	0	0	0	369	491	
14	0	0	0	0	233	513	
15	0	0	0	0	412	538	
0	0	0	0	0	545	532	
1	0	0	0	0	514	518	
2	0	0	0	0	502	513	
3	0	0	0	0	462	505	
4	0	0	0	0	484	506	
5	0	0	0	0	513	513	
6	0	0	0	0	519	516	
7	0	0	0	0	506	509	
8	0	0	0	0	556	507	
9	0	0	0	0	561	524	
10	0	0	0	0	567	526	
11	0	0	0	0	547	513	
12	0	0	0	0	537	526	
13	0	0	0	0	577	519	
14	0	0	0	0	558	513	
15	0	0	0	0	504	506	
0	0	0	0	0	495	539	
1	0	0	0	0	465	526	
2	0	0	0	0	403	529	
3	0	0	0	0	502	514	
4	0	0	0	0	579	465	
5	0	0	0	0	580	450	
6	0	0	0	0	519	449	
7	0	0	0	0	535	470	
8	0	0	0	0	589	535	
9	0	0	0	0	568	583	
10	0	0	0	0	530	581	
11	0	0	0	0	533	530	
12	0	0	0	0	372	479	
13	0	0	0	0	303	458	
14	0	0	0	0	356	463	
15	0	0	0	0	419	492	
0	0	0	0	0	459	515	
1	0	0	0	0	507	516	
2	0	0	0	0	524	518	
3	0	0	0	0	521	517	
4	0	0	0	0	518	504	
5	0	0	0	0	525	505	
6	0	0	0	0	542	499	
7	0	0	0	0	521	516	
8	0	0	0	0	550	552	
9	0	0	0	0	559	609	
10	0	0	0	0	560	618	
11	0	0	0	0	536	593	
12	0	0	0	0	525	511	
13	0	0	0	0	522	446	
14	0	0	0	0	545	447	
15	0	0	0	0	507	487	
0	0	0	0	0	507	467	
1	0	0	0	0	511	443	
2	0	0	0	0	458	486	
3	0	0	0	0	456	525	
4	0	0	0	0	472	531	
5	0	0	0	0	445	532	
6	0	0	0	0	462	531	
7	0	0	0	0	526	518	
8	0	0	0	0	593	502	
9	0	0	0	0	586	493	
10	0	0	0	0	506	483	
11	0	0	0	0	501	516	
12	0	0	0	0	479	540	
13	0	0	0	0	481	551	
14	0	0	0	0	467	510	
15	0	0	0	0	487	506	
0	0	0	0	0	482	519	
1	0	0	0	0	443	480	
2	0	0	0	0	560	481	
3	0	0	0	0	608	505	
4	0	0	0	0	607	516	
5	0	0	0	0	540	514	
6	0	0	0	0	471	513	
7	0	0	0	0	427	513	
8	0	0	0	0	370	508	
9	0	0	0	0	476	505	
10	0	0	0	0	521	509	
11	0	0	0	0	466	514	
12	0	0	0	0	509	525	
13	0	0	0	0	537	521	
14	0	0	0	0	553	530	
15	0	0	0	0	519	518	
0	0	0	0	0	558	513	
1	0	0	0	0	541	511	
2	0	0	0	0	453	512	
3	0	0	0	0	551	505	
4	0	0	0	0	518	496	
5	0	0	0	0	434	504	
6	0	0	0	0	483	519	
7	0	0	0	0	512	525	
8	0	0	0	0	510	524	
9	0	0	0	0	524	525	
10	0	0	0	0	486	527	
11	0	0	0	0	540	541	
12	0	0	0	0	502	521	
13	0	0	0	0	524	502	
14	0	0	0	0	510	481	
15	0	0	0	0	492	468	
0	0	0	0	0	410	484	
1	0	0	0	0	435	492	
2	0	0	0	0	488	499	
3	0	0	0	0	513	504	
4	0	0	0	0	521	502	
5	0	0	0	0	521	505	
6	0	0	0	0	511	504	
7	0	0	0	0	496	524	
8	0	0	0	0	498	531	
9	0	0	0	0	491	515	
10	0	0	0	0	493	545	
11	0	0	0	0	530	568	
12	0	0	0	0	563	549	
13	0	0	0	0	571	515	
14	0	0	0	0	516	496	
15	0	0	0	0	502	493	
0	0	0	0	0	525	473	
1	0	0	0	0	534	482	
2	0	0	0	0	519	515	
3	0	0	0	0	520	509	
4	0	0	0	0	467	495	
5	0	0	0	0	536	517	
6	0	0	0	0	543	515	
7	0	0	0	0	511	530	
8	0	0	0	0	518	543	
9	0	0	0	0	539	542	
10	0	0	0	0	506	537	
11	0	0	0	0	484	519	
12	0	0	0	0	495	496	
13	0	0	0	0	434	494	
14	0	0	0	0	454	524	
15	0	0	0	0	390	531	
0	0	0	0	0	443	528	
1	0	0	0	0	521	529	
2	0	0	0	0	532	546	
3	0	0	0	0	551	505	
4	0	0	0	0	525	473	
5	0	0	0	0	454	442	
6	0	0	0	0	459	448	
7	0	0	0	0	478	481	
8	0	0	0	0	494	499	
9	0	0	0	0	518	513	
10	0	0	0	0	539	528	
11	0	0	0	0	537	531	
12	0	0	0	0	544	518	
13	0	0	0	0	504	518	
14	0	0	0	0	503	539	
15	0	0	0	0	540	534	
0	0	0	0	0	525	520	
1	0	0	0	0	551	531	
2	0	0	0	0	595	534	
3	0	0	0	0	574	492	
4	0	0	0	0	490	457	
5	0	0	0	0	494	476	
6	0	0	0	0	481	478	
7	0	0	0	0	393	505	
8	0	0	0	0	378	565	
9	0	0	0	0	446	543	
10	0	0	0	0	537	496	
11	0	0	0	0	555	498	
12	0	0	0	0	548	497	
13	0	0	0	0	522	495	
14	0	0	0	0	434	520	
15	0	0	0	0	494	523	
0	0	0	0	0	534	520	
1	0	0	0	0	528	515	
2	0	0	0	0	509	523	
3	0	0	0	0	501	528	
4	0	0	0	0	510	526	
5	0	0	0	0	518	526	
6	0	0	0	0	569	519	
7	0	0	0	0	528	496	
8	0	0	0	0	460	494	
9	0	0	0	0	472	498	
10	0	0	0	0	527	506	
11	0	0	0	0	497	508	
12	0	0	0	0	458	522	
13	0	0	0	0	485	531	
14	0	0	0	0	493	531	
15	0	0	0	0	499	524	
0	0	0	0	0	510	518	
1	0	0	0	0	513	511	
2	0	0	0	0	513	500	
3	0	0	0	0	513	493	
4	0	0	0	0	510	502	
5	0	0	0	0	511	512	
6	0	0	0	0	509	519	
7	0	0	0	0	508	521	
8	0	0	0	0	512	513	
9	0	0	0	0	508	475	
10	0	0	0	0	509	457	
11	0	0	0	0	505	491	
12	0	0	0	0	507	519	
13	0	0	0	0	504	526	
14	0	0	0	0	512	552	
15	0	0	0	0	521	549	
0	0	0	0	0	526	531	
1	0	0	0	0	535	515	
2	0	0	0	0	531	500	
3	0	0	0	0	520	491	
4	0	0	0	0	476	494	
5	0	0	0	0	467	518	
6	0	0	0	0	472	528	
7	0	0	0	0	463	543	
8	0	0	0	0	495	542	
9	0	0	0	0	509	513	
10	0	0	0	0	508	501	
11	0	0	0	0	518	507	
12	0	0	0	0	500	512	
13	0	0	0	0	496	512	
14	0	0	0	0	500	500	
15	0	0	0	0	507	502	
0	0	0	0	0	509	514	
1	0	0	0	0	510	514	
2	0	0	0	0	505	513	
3	0	0	0	0	495	518	
4	0	0	0	0	498	509	
5	0	0	0	0	499	493	
6	0	0	0	0	523	481	
7	0	0	0	0	510	483	
8	0	0	0	0	507	497	
9	0	0	0	0	515	516	
10	0	0	0	0	502	534	
11	0	0	0	0	510	515	
12	0	0	0	0	513	511	
13	0	0	0	0	559	515	
14	0	0	0	0	535	512	
15	0	0	0	0	527	517	
0	0	0	0	0	518	508	
1	0	0	0	0	508	504	
2	0	0	0	0	487	509	
3	0	0	0	0	499	516	
4	0	0	0	0	492	518	
5	0	0	0	0	467	513	
6	0	0	0	0	467	515	
7	0	0	0	0	495	512	
8	0	0	0	0	498	506	
9	0	0	0	0	493	516	
10	0	0	0	0	489	519	
11	0	0	0	0	488	519	
12	0	0	0	0	479	530	
13	0	0	0	0	489	530	
14	0	0	0	0	534	507	
15	0	0	0	0	551	504	
0	0	0	0	0	557	498	
1	0	0	0	0	571	492	
2	0	0	0	0	556	508	
3	0	0	0	0	508	534	
4	0	0	0	0	483	528	
5	0	0	0	0	512	516	
6	0	0	0	0	513	489	
7	0	0	0	0	487	490	
8	0	0	0	0	489	496	
9	0	0	0	0	491	517	
10	0	0	0	0	480	528	
11	0	0	0	0	435	515	
12	0	0	0	0	499	518	
13	0	0	0	0	503	520	
14	0	0	0	0	515	515	
15	0	0	0	0	502	515	
0	0	0	0	0	477	515	
1	0	0	0	0	468	509	
2	0	0	0	0	480	508	
3	0	0	0	0	509	502	
4	0	0	0	0	519	499	
5	0	0	0	0	527	507	
6	0	0	0	0	519	512	
7	0	0	0	0	524	513	
8	0	0	0	0	511	519	
9	0	0	0	0	501	521	
10	0	0	0	0	511	515	
11	0	0	0	0	511	516	
12	0	0	0	0	511	514	
13	0	0	0	0	511	507	
14	0	0	0	0	510	496	
15	0	0	0	0	505	502	
0	0	0	0	0	500	505	
1	0	0	0	0	502	513	
2	0	0	0	0	504	518	
3	0	0	0	0	505	536	
4	0	0	0	0	502	532	
5	0	0	0	0	504	506	
6	0	0	0	0	511	492	
7	0	0	0	0	518	496	
8	0	0	0	0	519	501	
9	0	0	0	0	532	513	
10	0	0	0	0	525	515	
11	0	0	0	0	490	519	
12	0	0	0	0	436	491	
13	0	0	0	0	454	449	
14	0	0	0	0	521	480	
15	0	0	0	0	487	528	
0	0	0	0	0	531	566	
1	0	0	0	0	599	579	
2	0	0	0	0	567	611	
3	0	0	0	0	507	550	
4	0	0	0	0	479	499	
5	0	0	0	0	457	483	
6	0	0	0	0	495	484	
7	0	0	0	0	466	491	
8	0	0	0	0	496	485	
9	0	0	0	0	532	495	
10	0	0	0	0	524	496	
11	0	0	0	0	500	497	
12	0	0	0	0	488	498	
13	0	0	0	0	489	505	
14	0	0	0	0	494	511	
15	0	0	0	0	495	513	
0	0	0	0	0	496	512	
1	0	0	0	0	500	513	
2	0	0	0	0	508	521	
3	0	0	0	0	513	524	
4	0	0	0	0	512	519	
5	0	0	0	0	517	510	
6	0	0	0	0	515	510	
7	0	0	0	0	510	524	
8	0	0	0	0	510	529	
9	0	0	0	0	511	516	
10	0	0	0	0	507	513	
11	0	0	0	0	497	496	
12	0	0	0	0	477	503	
13	0	0	0	0	495	513	
14	0	0	0	0	498	512	
15	0	0	0	0	508	514	
0	0	0	0	0	514	512	
1	0	0	0	0	532	507	
2	0	0	0	0	535	508	
3	0	0	0	0	531	507	
4	0	0	0	0	510	505	
5	0	0	0	0	492	506	
6	0	0	0	0	486	508	
7	0	0	0	0	505	510	
8	0	0	0	0	529	514	
9	0	0	0	0	531	518	
10	0	0	0	0	508	519	
11	0	0	0	0	484	507	
12	0	0	0	0	476	517	
13	0	0	0	0	439	520	
14	0	0	0	0	449	519	
15	0	0	0	0	504	532	
0	0	0	0	0	530	536	
1	0	0	0	0	529	528	
2	0	0	0	0	526	515	
3	0	0	0	0	524	500	
4	0	0	0	0	519	464	
5	0	0	0	0	508	456	
6	0	0	0	0	508	478	
7	0	0	0	0	518	508	
8	0	0	0	0	512	522	
9	0	0	0	0	507	536	
10	0	0	0	0	492	528	
11	0	0	0	0	472	512	
12	0	0	0	0	495	506	
13	0	0	0	0	498	518	
14	0	0	0	0	492	527	
15	0	0	0	0	515	527	
0	0	0	0	0	508	518	
1	0	0	0	0	495	516	
2	0	0	0	0	525	518	
3	0	0	0	0	536	518	
4	0	0	0	0	569	523	
5	0	0	0	0	560	505	
6	0	0	0	0	572	497	
7	0	0	0	0	480	489	
8	0	0	0	0	446	500	
9	0	0	0	0	417	492	
10	0	0	0	0	395	505	
11	0	0	0	0	508	541	
12	0	0	0	0	593	532	
13	0	0	0	0	535	518	
14	0	0	0	0	495	508	
15	0	0	0	0	490	507	
0	0	0	0	0	496	513	
1	0	0	0	0	492	515	
2	0	0	0	0	493	518	
3	0	0	0	0	497	518	
4	0	0	0	0	501	514	
5	0	0	0	0	502	513	
6	0	0	0	0	507	509	
7	0	0	0	0	510	504	
8	0	0	0	0	509	509	
9	0	0	0	0	504	512	
10	0	0	0	0	500	504	
11	0	0	0	0	509	498	
12	0	0	0	0	518	505	
13	0	0	0	0	516	490	
14	0	0	0	0	530	485	
15	0	0	0	0	560	515	
0	0	0	0	0	547	548	
1	0	0	0	0	559	540	
2	0	0	0	0	553	533	
3	0	0	0	0	563	572	
4	0	0	0	0	526	543	
5	0	0	0	0	353	492	
6	0	0	0	0	314	481	
7	0	0	0	0	427	497	
8	0	0	0	0	479	515	
9	0	0	0	0	517	519	
10	0	0	0	0	533	508	
11	0	0	0	0	527	499	
12	0	0	0	0	500	486	
13	0	0	0	0	497	493	
14	0	0	0	0	510	503	
15	0	0	0	0	508	508	
0	0	0	0	0	511	513	
1	0	0	0	0	511	514	
2	0	0	0	0	514	512	
3	0	0	0	0	513	515	
4	0	0	0	0	513	520	
5	0	0	0	0	513	519	
6	0	0	0	0	515	515	
7	0	0	0	0	513	513	
8	0	0	0	0	512	513	
9	0	0	0	0	516	512	
10	0	0	0	0	515	511	
11	0	0	0	0	520	513	
12	0	0	0	0	515	508	
13	0	0	0	0	501	518	
14	0	0	0	0	499	541	
15	0	0	0	0	506	542	
0	0	0	0	0	509	532	
1	0	0	0	0	518	509	
2	0	0	0	0	519	480	
3	0	0	0	0	531	481	
4	0	0	0	0	545	473	
5	0	0	0	0	535	478	
6	0	0	0	0	485	501	
7	0	0	0	0	463	505	
8	0	0	0	0	426	503	
9	0	0	0	0	479	507	
10	0	0	0	0	525	544	
11	0	0	0	0	515	535	
12	0	0	0	0	497	510	
13	0	0	0	0	477	522	
14	0	0	0	0	480	537	
15	0	0	0	0	495	526	
0	0	0	0	0	512	502	
1	0	0	0	0	533	492	
2	0	0	0	0	520	494	
3	0	0	0	0	498	505	
4	0	0	0	0	516	516	
5	0	0	0	0	545	530	
6	0	0	0	0	538	532	
7	0	0	0	0	512	520	
8	0	0	0	0	513	512	
9	0	0	0	0	497	509	
10	0	0	0	0	472	505	
11	0	0	0	0	479	511	
12	0	0	0	0	460	514	
13	0	0	0	0	483	514	
14	0	0	0	0	511	517	
15	0	0	0	0	500	524	
0	0	0	0	0	515	519	
1	0	0	0	0	604	487	
2	0	0	0	0	702	481	
3	0	0	0	0	662	506	
4	0	0	0	0	551	484	
5	0	0	0	0	530	491	
6	0	0	0	0	476	499	
7	0	0	0	0	359	503	
8	0	0	0	0	291	508	
9	0	0	0	0	318	516	
10	0	0	0	0	476	549	
11	0	0	0	0	443	536	
12	0	0	0	0	480	547	
13	0	0	0	0	504	540	
14	0	0	0	0	521	511	
15	0	0	0	0	524	504	
0	0	0	0	0	508	510	
1	0	0	0	0	496	512	
2	0	0	0	0	515	512	
3	0	0	0	0	517	514	
4	0	0	0	0	527	514	
5	0	0	0	0	527	511	
6	0	0	0	0	526	510	
7	0	0	0	0	529	507	
8	0	0	0	0	526	499	
9	0	0	0	0	520	502	
10	0	0	0	0	517	502	
11	0	0	0	0	517	505	
12	0	0	0	0	513	518	
13	0	0	0	0	513	529	
14	0	0	0	0	512	535	
15	0	0	0	0	511	527	
0	0	0	0	0	513	510	
1	0	0	0	0	521	499	
2	0	0	0	0	553	497	
3	0	0	0	0	546	510	
4	0	0	0	0	516	519	
5	0	0	0	0	509	492	
6	0	0	0	0	532	454	
7	0	0	0	0	486	455	
8	0	0	0	0	395	482	
9	0	0	0	0	491	526	
10	0	0	0	0	546	508	
11	0	0	0	0	522	566	
12	0	0	0	0	449	572	
13	0	0	0	0	476	545	
14	0	0	0	0	502	549	
15	0	0	0	0	482	537	
0	0	0	0	0	468	511	
1	0	0	0	0	546	502	
2	0	0	0	0	542	499	
3	0	0	0	0	528	511	
4	0	0	0	0	518	515	
5	0	0	0	0	512	505	
6	0	0	0	0	442	507	
7	0	0	0	0	463	504	
8	0	0	0	0	486	489	
9	0	0	0	0	500	480	
10	0	0	0	0	504	494	
11	0	0	0	0	508	509	
12	0	0	0	0	510	505	
13	0	0	0	0	511	504	
14	0	0	0	0	511	511	
15	0	0	0	0	508	516	
0	0	0	0	0	508	518	
1	0	0	0	0	512	515	
2	0	0	0	0	512	514	
3	0	0	0	0	511	499	
4	0	0	0	0	509	504	
5	0	0	0	0	508	531	
6	0	0	0	0	504	541	
7	0	0	0	0	512	541	
8	0	0	0	0	534	545	
9	0	0	0	0	586	513	
10	0	0	0	0	624	480	
11	0	0	0	0	634	482	
12	0	0	0	0	638	472	
13	0	0	0	0	555	476	
14	0	0	0	0	496	550	
15	0	0	0	0	302	579	
0	0	0	0	0	135	540	
1	0	0	0	0	341	530	
2	0	0	0	0	439	481	
3	0	0	0	0	684	457	
4	0	0	0	0	614	481	
5	0	0	0	0	500	496	
6	0	0	0	0	387	519	
7	0	0	0	0	430	532	
8	0	0	0	0	525	511	
9	0	0	0	0	512	475	
10	0	0	0	0	558	469	
11	0	0	0	0	547	517	
12	0	0	0	0	524	535	
13	0	0	0	0	520	553	
14	0	0	0	0	478	543	
15	0	0	0	0	487	513	
0	0	0	0	0	483	509	
1	0	0	0	0	508	504	
2	0	0	0	0	512	508	
3	0	0	0	0	515	515	
4	0	0	0	0	516	520	
5	0	0	0	0	516	519	
6	0	0	0	0	517	511	
7	0	0	0	0	517	513	
8	0	0	0	0	516	514	
9	0	0	0	0	515	512	
10	0	0	0	0	513	513	
11	0	0	0	0	511	510	
12	0	0	0	0	511	510	
13	0	0	0	0	510	511	
14	0	0	0	0	511	511	
15	0	0	0	0	508	512	
0	0	0	0	0	507	512	
1	0	0	0	0	507	511	
2	0	0	0	0	505	510	
3	0	0	0	0	507	507	
4	0	0	0	0	505	514	
5	0	0	0	0	504	513	
6	0	0	0	0	505	506	
7	0	0	0	0	506	500	
8	0	0	0	0	504	513	
9	0	0	0	0	510	516	
10	0	0	0	0	515	516	
11	0	0	0	0	524	525	
12	0	0	0	0	521	539	
13	0	0	0	0	503	523	
14	0	0	0	0	489	510	
15	0	0	0	0	462	504	
0	0	0	0	0	458	505	
1	0	0	0	0	503	488	
2	0	0	0	0	551	520	
3	0	0	0	0	535	519	
4	0	0	0	0	521	506	
5	0	0	0	0	520	513	
6	0	0	0	0	504	512	
7	0	0	0	0	504	505	
8	0	0	0	0	505	494	
9	0	0	0	0	502	494	
10	0	0	0	0	500	503	
11	0	0	0	0	487	509	
12	0	0	0	0	475	511	
13	0	0	0	0	481	516	
14	0	0	0	0	497	519	
15	0	0	0	0	506	518	
0	0	0	0	0	519	517	
1	0	0	0	0	537	515	
2	0	0	0	0	527	514	
3	0	0	0	0	532	514	
4	0	0	0	0	519	517	
5	0	0	0	0	470	515	
6	0	0	0	0	466	518	
7	0	0	0	0	499	515	
8	0	0	0	0	475	517	
9	0	0	0	0	510	513	
10	0	0	0	0	542	502	
11	0	0	0	0	564	501	
12	0	0	0	0	540	504	
13	0	0	0	0	472	508	
14	0	0	0	0	423	514	
15	0	0	0	0	536	525	
0	0	0	0	0	519	532	
1	0	0	0	0	499	511	
2	0	0	0	0	535	507	
3	0	0	0	0	512	489	
4	0	0	0	0	423	479	
5	0	0	0	0	463	491	
6	0	0	0	0	496	489	
7	0	0	0	0	503	484	
8	0	0	0	0	495	499	
9	0	0	0	0	515	527	
10	0	0	0	0	554	533	
11	0	0	0	0	624	547	
12	0	0	0	0	622	570	
13	0	0	0	0	615	575	
14	0	0	0	0	554	523	
15	0	0	0	0	400	478	
0	0	0	0	0	335	500	
1	0	0	0	0	379	513	
2	0	0	0	0	426	503	
3	0	0	0	0	495	499	
4	0	0	0	0	475	504	
5	0	0	0	0	484	504	
6	0	0	0	0	498	508	
7	0	0	0	0	510	511	
8	0	0	0	0	515	510	
9	0	0	0	0	519	507	
10	0	0	0	0	519	513	
11	0	0	0	0	521	508	
12	0	0	0	0	521	495	
13	0	0	0	0	524	509	
14	0	0	0	0	523	518	
15	0	0	0	0	522	514	
0	0	0	0	0	518	509	
1	0	0	0	0	519	523	
2	0	0	0	0	519	527	
3	0	0	0	0	507	524	
4	0	0	0	0	507	522	
5	0	0	0	0	513	523	
6	0	0	0	0	518	517	
7	0	0	0	0	514	523	
8	0	0	0	0	508	515	
9	0	0	0	0	505	516	
10	0	0	0	0	494	523	
11	0	0	0	0	483	517	
12	0	0	0	0	499	501	
13	0	0	0	0	501	491	
14	0	0	0	0	515	499	
15	0	0	0	0	561	508	
0	0	0	0	0	552	489	
1	0	0	0	0	525	485	
2	0	0	0	0	457	492	
3	0	0	0	0	479	503	
4	0	0	0	0	549	519	
5	0	0	0	0	509	518	
6	0	0	0	0	462	517	
7	0	0	0	0	498	519	
8	0	0	0	0	506	517	
9	0	0	0	0	495	512	
10	0	0	0	0	487	510	
11	0	0	0	0	486	511	
12	0	0	0	0	464	514	
13	0	0	0	0	480	540	
14	0	0	0	0	507	531	
15	0	0	0	0	511	524	
0	0	0	0	0	509	518	
1	0	0	0	0	509	507	
2	0	0	0	0	511	491	
3	0	0	0	0	515	497	
4	0	0	0	0	511	510	
5	0	0	0	0	507	508	
6	0	0	0	0	509	512	
7	0	0	0	0	513	506	
8	0	0	0	0	515	496	
9	0	0	0	0	510	501	
10	0	0	0	0	507	493	
11	0	0	0	0	500	485	
12	0	0	0	0	510	493	
13	0	0	0	0	512	522	
14	0	0	0	0	507	553	
15	0	0	0	0	519	570	
0	0	0	0	0	527	575	
1	0	0	0	0	513	547	
2	0	0	0	0	524	512	
3	0	0	0	0	510	504	
4	0	0	0	0	453	496	
5	0	0	0	0	489	489	
6	0	0	0	0	591	489	
7	0	0	0	0	568	490	
8	0	0	0	0	477	499	
9	0	0	0	0	467	511	
10	0	0	0	0	479	510	
11	0	0	0	0	453	503	
12	0	0	0	0	430	494	
13	0	0	0	0	510	494	
14	0	0	0	0	591	506	
15	0	0	0	0	532	510	
0	0	0	0	0	457	516	
1	0	0	0	0	480	512	
2	0	0	0	0	495	513	
3	0	0	0	0	489	515	
4	0	0	0	0	500	513	
5	0	0	0	0	512	508	
6	0	0	0	0	510	513	
7	0	0	0	0	504	531	
8	0	0	0	0	504	525	
9	0	0	0	0	504	518	
10	0	0	0	0	494	514	
11	0	0	0	0	510	513	
12	0	0	0	0	527	511	
13	0	0	0	0	522	513	
14	0	0	0	0	514	512	
15	0	0	0	0	511	513	
0	0	0	0	0	505	515	
1	0	0	0	0	508	514	
2	0	0	0	0	503	517	
3	0	0	0	0	471	512	
4	0	0	0	0	489	507	
5	0	0	0	0	520	508	
6	0	0	0	0	514	504	
7	0	0	0	0	502	505	
8	0	0	0	0	503	510	
9	0	0	0	0	509	520	
10	0	0	0	0	505	524	
11	0	0	0	0	502	515	
12	0	0	0	0	504	504	
13	0	0	0	0	514	503	
14	0	0	0	0	516	508	
15	0	0	0	0	505	512	
0	0	0	0	0	505	511	
1	0	0	0	0	515	512	
2	0	0	0	0	518	511	
3	0	0	0	0	494	511	
4	0	0	0	0	508	515	
5	0	0	0	0	514	516	
6	0	0	0	0	508	514	
7	0	0	0	0	504	511	
8	0	0	0	0	502	508	
9	0	0	0	0	472	510	
10	0	0	0	0	486	505	
11	0	0	0	0	492	507	
12	0	0	0	0	527	512	
13	0	0	0	0	529	514	
14	0	0	0	0	518	515	
15	0	0	0	0	513	513	
0	0	0	0	0	487	510	
1	0	0	0	0	517	512	
2	0	0	0	0	508	513	
3	0	0	0	0	511	510	
4	0	0	0	0	510	511	
5	0	0	0	0	504	513	
6	0	0	0	0	498	515	
7	0	0	0	0	501	513	
8	0	0	0	0	502	508	
9	0	0	0	0	502	507	
10	0	0	0	0	503	512	
11	0	0	0	0	497	515	
12	0	0	0	0	498	518	
13	0	0	0	0	504	518	
14	0	0	0	0	507	514	
15	0	0	0	0	515	508	
0	0	0	0	0	520	503	
1	0	0	0	0	518	498	
2	0	0	0	0	515	503	
3	0	0	0	0	523	508	
4	0	0	0	0	513	522	
5	0	0	0	0	486	531	
6	0	0	0	0	492	526	
7	0	0	0	0	491	516	
8	0	0	0	0	484	510	
9	0	0	0	0	497	493	
10	0	0	0	0	508	496	
11	0	0	0	0	509	497	
12	0	0	0	0	490	507	
13	0	0	0	0	505	514	
14	0	0	0	0	515	530	
15	0	0	0	0	506	539	
0	0	0	0	0	504	528	
1	0	0	0	0	506	522	
2	0	0	0	0	511	511	
3	0	0	0	0	512	508	
4	0	0	0	0	517	498	
5	0	0	0	0	506	499	
6	0	0	0	0	524	507	
7	0	0	0	0	500	510	
8	0	0	0	0	498	512	
9	0	0	0	0	510	511	
10	0	0	0	0	506	515	
11	0	0	0	0	497	513	
12	0	0	0	0	488	506	
13	0	0	0	0	500	507	
14	0	0	0	0	505	509	
15	0	0	0	0	520	513	
0	0	0	0	0	519	514	
1	0	0	0	0	494	507	
2	0	0	0	0	514	496	
3	0	0	0	0	501	490	
4	0	0	0	0	506	497	
5	0	0	0	0	508	511	
6	0	0	0	0	504	520	
7	0	0	0	0	505	532	
8	0	0	0	0	489	538	
9	0	0	0	0	501	532	
10	0	0	0	0	520	512	
11	0	0	0	0	511	510	
12	0	0	0	0	482	496	
13	0	0	0	0	496	494	
14	0	0	0	0	507	503	
15	0	0	0	0	503	507	
0	0	0	0	0	498	524	
1	0	0	0	0	494	537	
2	0	0	0	0	496	535	
3	0	0	0	0	487	510	
4	0	0	0	0	503	500	
5	0	0	0	0	531	496	
6	0	0	0	0	551	501	
7	0	0	0	0	554	509	
8	0	0	0	0	538	527	
9	0	0	0	0	508	547	
10	0	0	0	0	487	524	
11	0	0	0	0	472	510	
12	0	0	0	0	444	502	
13	0	0	0	0	514	496	
14	0	0	0	0	514	498	
15	0	0	0	0	494	504	
0	0	0	0	0	512	504	
1	0	0	0	0	526	502	
2	0	0	0	0	522	500	
3	0	0	0	0	508	497	
4	0	0	0	0	504	505	
5	0	0	0	0	511	531	
6	0	0	0	0	499	522	
7	0	0	0	0	472	513	
8	0	0	0	0	483	509	
9	0	0	0	0	495	503	
10	0	0	0	0	529	510	
11	0	0	0	0	535	527	
12	0	0	0	0	523	529	
13	0	0	0	0	503	524	
14	0	0	0	0	484	521	
15	0	0	0	0	496	514	
0	0	0	0	0	504	511	
1	0	0	0	0	487	507	
2	0	0	0	0	488	503	
3	0	0	0	0	508	509	
4	0	0	0	0	499	512	
5	0	0	0	0	496	507	
6	0	0	0	0	499	504	
7	0	0	0	0	504	507	
8	0	0	0	0	516	516	
9	0	0	0	0	515	514	
10	0	0	0	0	522	511	
11	0	0	0	0	524	503	
12	0	0	0	0	511	507	
13	0	0	0	0	505	514	
14	0	0	0	0	504	520	
15	0	0	0	0	507	517	
0	0	0	0	0	506	529	
1	0	0	0	0	491	536	
2	0	0	0	0	495	524	
3	0	0	0	0	509	512	
4	0	0	0	0	518	495	
5	0	0	0	0	511	485	
6	0	0	0	0	510	494	
7	0	0	0	0	500	511	
8	0	0	0	0	499	512	
9	0	0	0	0	511	507	
10	0	0	0	0	517	512	
11	0	0	0	0	511	516	
12	0	0	0	0	512	522	
13	0	0	0	0	521	521	
14	0	0	0	0	518	520	
15	0	0	0	0	499	519	
0	0	0	0	0	515	520	
1	0	0	0	0	512	514	
2	0	0	0	0	491	505	
3	0	0	0	0	460	486	
4	0	0	0	0	471	495	
5	0	0	0	0	521	508	
6	0	0	0	0	529	516	
7	0	0	0	0	537	521	
8	0	0	0	0	499	520	
9	0	0	0	0	479	516	
10	0	0	0	0	472	510	
11	0	0	0	0	468	507	
12	0	0	0	0	485	504	
13	0	0	0	0	509	508	
14	0	0	0	0	537	496	
15	0	0	0	0	537	492	
0	0	0	0	0	516	503	
1	0	0	0	0	503	517	
2	0	0	0	0	504	526	
3	0	0	0	0	506	525	
4	0	0	0	0	508	530	
5	0	0	0	0	512	546	
6	0	0	0	0	513	530	
7	0	0	0	0	514	513	
8	0	0	0	0	508	503	
9	0	0	0	0	507	505	
10	0	0	0	0	499	502	
11	0	0	0	0	496	504	
12	0	0	0	0	467	504	
13	0	0	0	0	490	508	
14	0	0	0	0	513	512	
15	0	0	0	0	518	504	
0	0	0	0	0	513	501	
1	0	0	0	0	500	495	
2	0	0	0	0	503	504	
3	0	0	0	0	536	490	
4	0	0	0	0	528	499	
5	0	0	0	0	512	519	
6	0	0	0	0	496	541	
7	0	0	0	0	479	543	
8	0	0	0	0	469	528	
9	0	0	0	0	555	519	
10	0	0	0	0	559	508	
11	0	0	0	0	497	511	
12	0	0	0	0	484	508	
13	0	0	0	0	498	506	
14	0	0	0	0	497	509	
15	0	0	0	0	492	517	
0	0	0	0	0	494	518	
1	0	0	0	0	496	511	
2	0	0	0	0	499	502	
3	0	0	0	0	504	503	
4	0	0	0	0	498	500	
5	0	0	0	0	495	511	
6	0	0	0	0	497	515	
7	0	0	0	0	515	519	
8	0	0	0	0	535	527	
9	0	0	0	0	529	520	
10	0	0	0	0	537	517	
11	0	0	0	0	521	511	
12	0	0	0	0	499	490	
13	0	0	0	0	480	483	
14	0	0	0	0	499	480	
15	0	0	0	0	543	507	
0	0	0	0	0	492	516	
1	0	0	0	0	483	524	
2	0	0	0	0	489	537	
3	0	0	0	0	470	532	
4	0	0	0	0	469	519	
5	0	0	0	0	487	532	
6	0	0	0	0	504	547	
7	0	0	0	0	505	536	
8	0	0	0	0	506	522	
9	0	0	0	0	523	519	
10	0	0	0	0	519	516	
11	0	0	0	0	519	507	
12	0	0	0	0	531	493	
13	0	0	0	0	545	473	
14	0	0	0	0	539	482	
15	0	0	0	0	443	495	
0	0	0	0	0	415	487	
1	0	0	0	0	491	496	
2	0	0	0	0	556	501	
3	0	0	0	0	559	507	
4	0	0	0	0	552	512	
5	0	0	0	0	500	519	
6	0	0	0	0	488	519	
7	0	0	0	0	492	519	
8	0	0	0	0	488	519	
9	0	0	0	0	486	519	
10	0	0	0	0	487	504	
11	0	0	0	0	493	499	
12	0	0	0	0	503	499	
13	0	0	0	0	516	499	
14	0	0	0	0	546	518	
15	0	0	0	0	555	548	
0	0	0	0	0	552	564	
1	0	0	0	0	502	536	
2	0	0	0	0	512	505	
3	0	0	0	0	511	523	
4	0	0	0	0	446	507	
5	0	0	0	0	440	495	
6	0	0	0	0	492	499	
7	0	0	0	0	512	500	
8	0	0	0	0	509	508	
9	0	0	0	0	505	506	
10	0	0	0	0	504	502	
11	0	0	0	0	501	497	
12	0	0	0	0	494	499	
13	0	0	0	0	494	510	
14	0	0	0	0	502	509	
15	0	0	0	0	504	526	
0	0	0	0	0	508	529	
1	0	0	0	0	509	520	
2	0	0	0	0	508	521	
3	0	0	0	0	513	520	
4	0	0	0	0	519	525	
5	0	0	0	0	537	507	
6	0	0	0	0	538	517	
7	0	0	0	0	524	520	
8	0	0	0	0	515	511	
9	0	0	0	0	499	500	
10	0	0	0	0	465	478	
11	0	0	0	0	435	475	
12	0	0	0	0	502	475	
13	0	0	0	0	547	496	
14	0	0	0	0	499	542	
15	0	0	0	0	491	545	
0	0	0	0	0	499	545	
1	0	0	0	0	517	495	
2	0	0	0	0	512	492	
3	0	0	0	0	496	502	
4	0	0	0	0	512	506	
5	0	0	0	0	502	524	
6	0	0	0	0	496	548	
7	0	0	0	0	506	558	
8	0	0	0	0	510	542	
9	0	0	0	0	513	519	
10	0	0	0	0	515	511	
11	0	0	0	0	502	512	
12	0	0	0	0	509	514	
13	0	0	0	0	524	515	
14	0	0	0	0	530	515	
15	0	0	0	0	489	512	
0	0	0	0	0	464	499	
1	0	0	0	0	498	486	
2	0	0	0	0	525	478	
3	0	0	0	0	555	481	
4	0	0	0	0	543	517	
5	0	0	0	0	527	529	
6	0	0	0	0	569	526	
7	0	0	0	0	566	512	
8	0	0	0	0	558	511	
9	0	0	0	0	517	510	
10	0	0	0	0	456	495	
11	0	0	0	0	473	496	
12	0	0	0	0	355	489	
13	0	0	0	0	404	467	
14	0	0	0	0	459	464	
15	0	0	0	0	505	506	
0	0	0	0	0	470	540	
1	0	0	0	0	521	522	
2	0	0	0	0	556	510	
3	0	0	0	0	537	539	
4	0	0	0	0	443	549	
5	0	0	0	0	441	527	
6	0	0	0	0	520	534	
7	0	0	0	0	518	524	
8	0	0	0	0	512	507	
9	0	0	0	0	512	506	
10	0	0	0	0	511	511	
11	0	0	0	0	512	518	
12	0	0	0	0	519	522	
13	0	0	0	0	519	532	
14	0	0	0	0	514	528	
15	0	0	0	0	510	504	
0	0	0	0	0	512	493	
1	0	0	0	0	503	490	
2	0	0	0	0	517	492	
3	0	0	0	0	527	497	
4	0	0	0	0	515	495	
5	0	0	0	0	508	491	
6	0	0	0	0	507	487	
7	0	0	0	0	524	482	
8	0	0	0	0	535	508	
9	0	0	0	0	529	536	
10	0	0	0	0	520	558	
11	0	0	0	0	497	571	
12	0	0	0	0	461	561	
13	0	0	0	0	482	543	
14	0	0	0	0	453	526	
15	0	0	0	0	482	510	
0	0	0	0	0	498	500	
1	0	0	0	0	518	489	
2	0	0	0	0	525	487	
3	0	0	0	0	543	487	
4	0	0	0	0	594	493	
5	0	0	0	0	593	515	
6	0	0	0	0	577	520	
7	0	0	0	0	489	522	
8	0	0	0	0	431	519	
9	0	0	0	0	441	517	
10	0	0	0	0	457	504	
11	0	0	0	0	495	487	
12	0	0	0	0	481	502	
13	0	0	0	0	458	498	
14	0	0	0	0	417	501	
15	0	0	0	0	457	508	
0	0	0	0	0	502	522	
1	0	0	0	0	521	492	
2	0	0	0	0	531	432	
3	0	0	0	0	559	438	
4	0	0	0	0	562	481	
5	0	0	0	0	543	521	
6	0	0	0	0	540	562	
7	0	0	0	0	549	607	
8	0	0	0	0	530	668	
9	0	0	0	0	480	636	
10	0	0	0	0	468	545	
11	0	0	0	0	457	484	
12	0	0	0	0	434	468	
13	0	0	0	0	484	442	
14	0	0	0	0	581	455	
15	0	0	0	0	624	498	
0	0	0	0	0	607	518	
1	0	0	0	0	524	526	
2	0	0	0	0	549	537	
3	0	0	0	0	511	515	
4	0	0	0	0	465	483	
5	0	0	0	0	459	497	
6	0	0	0	0	350	494	
7	0	0	0	0	299	497	
8	0	0	0	0	441	476	
9	0	0	0	0	467	469	
10	0	0	0	0	595	479	
11	0	0	0	0	551	510	
12	0	0	0	0	553	524	
13	0	0	0	0	471	541	
14	0	0	0	0	483	537	
15	0	0	0	0	499	522	
0	0	0	0	0	519	511	
1	0	0	0	0	531	505	
2	0	0	0	0	527	510	
3	0	0	0	0	505	512	
4	0	0	0	0	503	510	
5	0	0	0	0	519	506	
6	0	0	0	0	524	511	
7	0	0	0	0	507	518	
8	0	0	0	0	497	524	
9	0	0	0	0	510	518	
10	0	0	0	0	529	518	
11	0	0	0	0	518	519	
12	0	0	0	0	503	519	
13	0	0	0	0	503	510	
14	0	0	0	0	496	518	
15	0	0	0	0	492	519	
0	0	0	0	0	482	507	
1	0	0	0	0	495	487	
2	0	0	0	0	519	483	
3	0	0	0	0	515	481	
4	0	0	0	0	555	476	
5	0	0	0	0	590	494	
6	0	0	0	0	623	525	
7	0	0	0	0	545	596	
8	0	0	0	0	543	566	
9	0	0	0	0	483	536	
10	0	0	0	0	460	519	
11	0	0	0	0	484	496	
12	0	0	0	0	458	484	
13	0	0	0	0	376	494	
14	0	0	0	0	366	514	
15	0	0	0	0	443	539	
0	0	0	0	0	492	563	
1	0	0	0	0	534	540	
2	0	0	0	0	564	511	
3	0	0	0	0	563	487	
4	0	0	0	0	544	457	
5	0	0	0	0	549	457	
6	0	0	0	0	523	490	
7	0	0	0	0	425	508	
8	0	0	0	0	423	519	
9	0	0	0	0	484	542	
10	0	0	0	0	512	561	
11	0	0	0	0	502	542	
12	0	0	0	0	518	504	
13	0	0	0	0	547	488	
14	0	0	0	0	560	497	
15	0	0	0	0	581	504	
0	0	0	0	0	612	492	
1	0	0	0	0	602	496	
2	0	0	0	0	588	519	
3	0	0	0	0	508	551	
4	0	0	0	0	359	496	
5	0	0	0	0	381	456	
6	0	0	0	0	405	483	
7	0	0	0	0	424	518	
8	0	0	0	0	481	492	
9	0	0	0	0	529	486	
10	0	0	0	0	449	516	
11	0	0	0	0	486	563	
12	0	0	0	0	519	568	
13	0	0	0	0	491	535	
14	0	0	0	0	512	532	
15	0	0	0	0	523	524	
0	0	0	0	0	521	513	
1	0	0	0	0	508	508	
2	0	0	0	0	494	511	
3	0	0	0	0	504	515	
4	0	0	0	0	534	524	
5	0	0	0	0	551	524	
6	0	0	0	0	550	511	
7	0	0	0	0	540	516	
8	0	0	0	0	519	521	
9	0	0	0	0	508	511	
10	0	0	0	0	500	499	
11	0	0	0	0	489	493	
12	0	0	0	0	476	484	
13	0	0	0	0	486	490	
14	0	0	0	0	496	489	
15	0	0	0	0	520	501	
0	0	0	0	0	497	512	
1	0	0	0	0	539	520	
2	0	0	0	0	588	518	
3	0	0	0	0	579	509	
4	0	0	0	0	572	507	
5	0	0	0	0	556	499	
6	0	0	0	0	545	504	
7	0	0	0	0	462	518	
8	0	0	0	0	460	532	
9	0	0	0	0	463	527	
10	0	0	0	0	432	507	
11	0	0	0	0	545	483	
12	0	0	0	0	504	467	
13	0	0	0	0	375	482	
14	0	0	0	0	453	513	
15	0	0	0	0	449	556	
0	0	0	0	0	419	584	
1	0	0	0	0	480	574	
2	0	0	0	0	518	524	
3	0	0	0	0	516	510	
4	0	0	0	0	508	529	
5	0	0	0	0	509	534	
6	0	0	0	0	546	512	
7	0	0	0	0	560	508	
8	0	0	0	0	573	511	
9	0	0	0	0	552	466	
10	0	0	0	0	548	443	
11	0	0	0	0	485	429	
12	0	0	0	0	445	414	
13	0	0	0	0	468	447	
14	0	0	0	0	435	488	
15	0	0	0	0	487	551	
0	0	0	0	0	580	612	
1	0	0	0	0	612	636	
2	0	0	0	0	614	627	
3	0	0	0	0	617	575	
4	0	0	0	0	577	521	
5	0	0	0	0	371	468	
6	0	0	0	0	303	452	
7	0	0	0	0	389	466	
8	0	0	0	0	543	480	
9	0	0	0	0	563	495	
10	0	0	0	0	538	503	
11	0	0	0	0	473	519	
12	0	0	0	0	468	535	
13	0	0	0	0	494	521	
14	0	0	0	0	487	519	
15	0	0	0	0	494	514	
0	0	0	0	0	496	514	
1	0	0	0	0	504	514	
2	0	0	0	0	525	503	
3	0	0	0	0	531	507	
4	0	0	0	0	510	501	
5	0	0	0	0	495	501	
6	0	0	0	0	497	500	
7	0	0	0	0	471	512	
8	0	0	0	0	468	518	
9	0	0	0	0	504	512	
10	0	0	0	0	536	508	
11	0	0	0	0	547	510	
12	0	0	0	0	531	513	
13	0	0	0	0	515	493	
14	0	0	0	0	500	482	
15	0	0	0	0	504	493	
0	0	0	0	0	498	500	
1	0	0	0	0	509	503	
2	0	0	0	0	545	530	
3	0	0	0	0	612	544	
4	0	0	0	0	632	529	
5	0	0	0	0	567	526	
6	0	0	0	0	532	512	
7	0	0	0	0	426	508	
8	0	0	0	0	353	501	
9	0	0	0	0	354	493	
10	0	0	0	0	448	518	
11	0	0	0	0	521	530	
12	0	0	0	0	547	540	
13	0	0	0	0	513	543	
14	0	0	0	0	469	547	
15	0	0	0	0	465	543	
0	0	0	0	0	501	523	
1	0	0	0	0	513	512	
2	0	0	0	0	520	508	
3	0	0	0	0	529	486	
4	0	0	0	0	531	491	
5	0	0	0	0	516	495	
6	0	0	0	0	476	492	
7	0	0	0	0	510	500	
8	0	0	0	0	500	501	
9	0	0	0	0	548	520	
10	0	0	0	0	565	539	
11	0	0	0	0	518	525	
12	0	0	0	0	498	515	
13	0	0	0	0	548	516	
14	0	0	0	0	556	509	
15	0	0	0	0	498	511	
0	0	0	0	0	511	504	
1	0	0	0	0	614	499	
2	0	0	0	0	537	493	
3	0	0	0	0	329	481	
4	0	0	0	0	384	472	
5	0	0	0	0	463	475	
6	0	0	0	0	486	501	
7	0	0	0	0	469	531	
8	0	0	0	0	594	565	
9	0	0	0	0	583	560	
10	0	0	0	0	496	539	
11	0	0	0	0	465	508	
12	0	0	0	0	481	508	
13	0	0	0	0	470	505	
14	0	0	0	0	487	494	
15	0	0	0	0	511	483	
0	0	0	0	0	519	492	
1	0	0	0	0	535	511	
2	0	0	0	0	546	515	
3	0	0	0	0	520	507	
4	0	0	0	0	497	521	
5	0	0	0	0	472	515	
6	0	0	0	0	474	507	
7	0	0	0	0	451	470	
8	0	0	0	0	425	487	
9	0	0	0	0	476	515	
10	0	0	0	0	512	510	
11	0	0	0	0	524	522	
12	0	0	0	0	563	584	
13	0	0	0	0	632	569	
14	0	0	0	0	618	471	
15	0	0	0	0	527	438	
0	0	0	0	0	457	472	
1	0	0	0	0	452	536	
2	0	0	0	0	499	572	
3	0	0	0	0	470	587	
4	0	0	0	0	449	600	
5	0	0	0	0	498	539	
6	0	0	0	0	528	491	
7	0	0	0	0	518	474	
8	0	0	0	0	513	476	
9	0	0	0	0	517	483	
10	0	0	0	0	537	494	
11	0	0	0	0	545	510	
12	0	0	0	0	517	500	
13	0	0	0	0	517	485	
14	0	0	0	0	502	473	
15	0	0	0	0	532	505	
0	0	0	0	0	439	517	
1	0	0	0	0	422	504	
2	0	0	0	0	529	498	
3	0	0	0	0	492	507	
