# OpenSignals Text File Format. Version 1
# {"98:D3:71:FE:38:C0": {"position": 0, "device": "bitalino_rev", "device name": "98:D3:71:FE:38:C0", "device connection": "BTH98:D3:71:FE:38:C0", "sampling rate": 1000, "resolution": [4, 1, 1, 1, 1, 10, 10], "firmware version": 1282, "comments": "", "keywords": "", "mode": 0, "sync interval": 2, "date": "2026-6-12", "time": "11:48:32.492", "channels": [1, 2], "sensor": ["EMGBITREV", "EMGBITREV"], "label": ["A1", "A2"], "column": ["nSeq", "I1", "I2", "O1", "O2", "A1", "A2"], "special": [{}, {}], "digital IO": [0, 0, 1, 1]}}
# EndOfHeader
0	0	0	0	0	505	517	
1	0	0	0	0	507	515	
2	0	0	0	0	509	514	
3	0	0	0	0	506	512	
4	0	0	0	0	506	513	
5	0	0	0	0	506	512	
6	0	0	0	0	506	511	
7	0	0	0	0	508	512	
8	0	0	0	0	506	511	
9	0	0	0	0	505	508	
10	0	0	0	0	504	505	
11	0	0	0	0	507	504	
12	0	0	0	0	510	507	
13	0	0	0	0	506	510	
14	0	0	0	0	504	509	
15	0	0	0	0	500	510	
0	0	0	0	0	503	518	
1	0	0	0	0	508	520	
2	0	0	0	0	504	519	
3	0	0	0	0	500	524	
4	0	0	0	0	502	522	
5	0	0	0	0	499	519	
6	0	0	0	0	504	513	
7	0	0	0	0	504	511	
8	0	0	0	0	508	509	
9	0	0	0	0	509	508	
10	0	0	0	0	508	508	
11	0	0	0	0	508	507	
12	0	0	0	0	502	508	
13	0	0	0	0	502	506	
14	0	0	0	0	507	505	
15	0	0	0	0	504	509	
0	0	0	0	0	502	515	
1	0	0	0	0	506	513	
2	0	0	0	0	510	511	
3	0	0	0	0	507	511	
4	0	0	0	0	506	512	
5	0	0	0	0	509	512	
6	0	0	0	0	511	514	
7	0	0	0	0	510	514	
8	0	0	0	0	506	510	
9	0	0	0	0	505	509	
10	0	0	0	0	504	508	
11	0	0	0	0	496	509	
12	0	0	0	0	501	508	
13	0	0	0	0	506	510	
14	0	0	0	0	505	508	
15	0	0	0	0	503	508	
0	0	0	0	0	505	509	
1	0	0	0	0	505	507	
2	0	0	0	0	507	508	
3	0	0	0	0	507	515	
4	0	0	0	0	507	514	
5	0	0	0	0	505	516	
6	0	0	0	0	504	516	
7	0	0	0	0	504	519	
8	0	0	0	0	505	523	
9	0	0	0	0	505	527	
10	0	0	0	0	504	521	
11	0	0	0	0	505	510	
12	0	0	0	0	506	508	
13	0	0	0	0	509	505	
14	0	0	0	0	509	507	
15	0	0	0	0	505	509	
0	0	0	0	0	505	507	
1	0	0	0	0	504	508	
2	0	0	0	0	505	512	
3	0	0	0	0	507	518	
4	0	0	0	0	505	513	
5	0	0	0	0	504	510	
6	0	0	0	0	504	511	
7	0	0	0	0	505	511	
8	0	0	0	0	508	513	
9	0	0	0	0	505	512	
10	0	0	0	0	506	509	
11	0	0	0	0	504	508	
12	0	0	0	0	502	510	
13	0	0	0	0	502	510	
14	0	0	0	0	503	510	
15	0	0	0	0	511	512	
0	0	0	0	0	515	511	
1	0	0	0	0	508	511	
2	0	0	0	0	504	511	
3	0	0	0	0	504	511	
4	0	0	0	0	503	512	
5	0	0	0	0	502	512	
6	0	0	0	0	505	511	
7	0	0	0	0	504	511	
8	0	0	0	0	502	513	
9	0	0	0	0	505	513	
10	0	0	0	0	507	512	
11	0	0	0	0	506	511	
12	0	0	0	0	507	511	
13	0	0	0	0	505	508	
14	0	0	0	0	505	511	
15	0	0	0	0	508	513	
0	0	0	0	0	506	515	
1	0	0	0	0	506	515	
2	0	0	0	0	506	514	
3	0	0	0	0	506	513	
4	0	0	0	0	505	515	
5	0	0	0	0	507	513	
6	0	0	0	0	507	509	
7	0	0	0	0	506	511	
8	0	0	0	0	505	511	
9	0	0	0	0	507	513	
10	0	0	0	0	505	516	
11	0	0	0	0	506	516	
12	0	0	0	0	504	510	
13	0	0	0	0	503	508	
14	0	0	0	0	506	509	
15	0	0	0	0	507	510	
0	0	0	0	0	504	512	
1	0	0	0	0	498	514	
2	0	0	0	0	504	513	
3	0	0	0	0	509	512	
4	0	0	0	0	510	510	
5	0	0	0	0	508	512	
6	0	0	0	0	511	511	
7	0	0	0	0	509	512	
8	0	0	0	0	508	513	
9	0	0	0	0	502	510	
10	0	0	0	0	499	513	
11	0	0	0	0	493	508	
12	0	0	0	0	495	508	
13	0	0	0	0	498	510	
14	0	0	0	0	507	512	
15	0	0	0	0	508	510	
0	0	0	0	0	512	508	
1	0	0	0	0	508	509	
2	0	0	0	0	505	511	
3	0	0	0	0	508	518	
4	0	0	0	0	508	512	
5	0	0	0	0	509	510	
6	0	0	0	0	509	510	
7	0	0	0	0	510	515	
8	0	0	0	0	506	518	
9	0	0	0	0	501	518	
10	0	0	0	0	505	516	
11	0	0	0	0	508	517	
12	0	0	0	0	509	514	
13	0	0	0	0	508	513	
14	0	0	0	0	506	515	
15	0	0	0	0	505	521	
0	0	0	0	0	503	517	
1	0	0	0	0	503	513	
2	0	0	0	0	505	508	
3	0	0	0	0	504	508	
4	0	0	0	0	501	505	
5	0	0	0	0	504	506	
6	0	0	0	0	507	508	
7	0	0	0	0	505	511	
8	0	0	0	0	507	508	
9	0	0	0	0	506	509	
10	0	0	0	0	504	509	
11	0	0	0	0	507	512	
12	0	0	0	0	506	512	
13	0	0	0	0	505	512	
14	0	0	0	0	502	511	
15	0	0	0	0	502	511	
0	0	0	0	0	500	512	
1	0	0	0	0	507	511	
2	0	0	0	0	507	512	
3	0	0	0	0	506	510	
4	0	0	0	0	506	512	
5	0	0	0	0	509	510	
6	0	0	0	0	511	508	
7	0	0	0	0	505	508	
8	0	0	0	0	511	511	
9	0	0	0	0	511	514	
10	0	0	0	0	506	516	
11	0	0	0	0	504	511	
12	0	0	0	0	494	510	
13	0	0	0	0	499	510	
14	0	0	0	0	504	509	
15	0	0	0	0	504	508	
0	0	0	0	0	504	510	
1	0	0	0	0	508	512	
2	0	0	0	0	506	515	
3	0	0	0	0	505	520	
4	0	0	0	0	507	518	
5	0	0	0	0	507	516	
6	0	0	0	0	506	513	
7	0	0	0	0	505	511	
8	0	0	0	0	505	519	
9	0	0	0	0	505	520	
10	0	0	0	0	505	519	
11	0	0	0	0	504	518	
12	0	0	0	0	505	513	
13	0	0	0	0	505	508	
14	0	0	0	0	506	507	
15	0	0	0	0	504	508	
0	0	0	0	0	503	507	
1	0	0	0	0	504	508	
2	0	0	0	0	507	508	
3	0	0	0	0	504	511	
4	0	0	0	0	505	514	
5	0	0	0	0	511	515	
6	0	0	0	0	509	512	
7	0	0	0	0	508	511	
8	0	0	0	0	505	509	
9	0	0	0	0	506	512	
10	0	0	0	0	504	512	
11	0	0	0	0	497	512	
12	0	0	0	0	499	513	
13	0	0	0	0	502	512	
14	0	0	0	0	505	510	
15	0	0	0	0	507	510	
0	0	0	0	0	507	508	
1	0	0	0	0	507	511	
2	0	0	0	0	508	510	
3	0	0	0	0	505	508	
4	0	0	0	0	505	513	
5	0	0	0	0	505	513	
6	0	0	0	0	507	515	
7	0	0	0	0	509	514	
8	0	0	0	0	508	517	
9	0	0	0	0	508	514	
10	0	0	0	0	508	511	
11	0	0	0	0	507	510	
12	0	0	0	0	507	511	
13	0	0	0	0	503	508	
14	0	0	0	0	492	511	
15	0	0	0	0	491	510	
0	0	0	0	0	502	511	
1	0	0	0	0	512	512	
2	0	0	0	0	508	513	
3	0	0	0	0	506	511	
4	0	0	0	0	508	512	
5	0	0	0	0	505	511	
6	0	0	0	0	507	509	
7	0	0	0	0	506	511	
8	0	0	0	0	505	510	
9	0	0	0	0	507	511	
10	0	0	0	0	506	513	
11	0	0	0	0	507	510	
12	0	0	0	0	505	512	
13	0	0	0	0	505	511	
14	0	0	0	0	504	511	
15	0	0	0	0	504	511	
0	0	0	0	0	510	515	
1	0	0	0	0	511	515	
2	0	0	0	0	510	511	
3	0	0	0	0	508	511	
4	0	0	0	0	507	510	
5	0	0	0	0	505	511	
6	0	0	0	0	502	512	
7	0	0	0	0	498	515	
8	0	0	0	0	496	512	
9	0	0	0	0	504	512	
10	0	0	0	0	507	514	
11	0	0	0	0	510	516	
12	0	0	0	0	511	514	
13	0	0	0	0	504	514	
14	0	0	0	0	502	517	
15	0	0	0	0	508	518	
0	0	0	0	0	508	516	
1	0	0	0	0	503	510	
2	0	0	0	0	503	506	
3	0	0	0	0	507	506	
4	0	0	0	0	504	508	
5	0	0	0	0	504	512	
6	0	0	0	0	505	512	
7	0	0	0	0	504	509	
8	0	0	0	0	505	509	
9	0	0	0	0	505	507	
10	0	0	0	0	505	511	
11	0	0	0	0	505	515	
12	0	0	0	0	505	516	
13	0	0	0	0	507	512	
14	0	0	0	0	509	513	
15	0	0	0	0	508	510	
0	0	0	0	0	507	511	
1	0	0	0	0	505	511	
2	0	0	0	0	504	513	
3	0	0	0	0	508	512	
4	0	0	0	0	503	513	
5	0	0	0	0	497	510	
6	0	0	0	0	500	512	
7	0	0	0	0	504	512	
8	0	0	0	0	508	511	
9	0	0	0	0	508	512	
10	0	0	0	0	506	507	
11	0	0	0	0	507	507	
12	0	0	0	0	505	508	
13	0	0	0	0	504	511	
14	0	0	0	0	504	511	
15	0	0	0	0	507	512	
0	0	0	0	0	507	513	
1	0	0	0	0	505	514	
2	0	0	0	0	505	515	
3	0	0	0	0	504	514	
4	0	0	0	0	506	512	
5	0	0	0	0	507	512	
6	0	0	0	0	505	512	
7	0	0	0	0	506	513	
8	0	0	0	0	503	513	
9	0	0	0	0	505	513	
10	0	0	0	0	504	511	
11	0	0	0	0	504	509	
12	0	0	0	0	507	507	
13	0	0	0	0	503	507	
14	0	0	0	0	504	508	
15	0	0	0	0	504	509	
0	0	0	0	0	503	508	
1	0	0	0	0	505	509	
2	0	0	0	0	505	511	
3	0	0	0	0	507	514	
4	0	0	0	0	506	522	
5	0	0	0	0	508	530	
6	0	0	0	0	509	522	
7	0	0	0	0	508	514	
8	0	0	0	0	505	512	
9	0	0	0	0	506	512	
10	0	0	0	0	507	514	
11	0	0	0	0	510	511	
12	0	0	0	0	510	509	
13	0	0	0	0	510	510	
14	0	0	0	0	508	511	
15	0	0	0	0	500	508	
0	0	0	0	0	501	507	
1	0	0	0	0	503	508	
2	0	0	0	0	499	509	
3	0	0	0	0	495	511	
4	0	0	0	0	499	512	
5	0	0	0	0	504	510	
6	0	0	0	0	507	513	
7	0	0	0	0	504	513	
8	0	0	0	0	507	514	
9	0	0	0	0	510	513	
10	0	0	0	0	509	512	
11	0	0	0	0	505	509	
12	0	0	0	0	505	508	
13	0	0	0	0	504	509	
14	0	0	0	0	506	504	
15	0	0	0	0	505	507	
0	0	0	0	0	506	510	
1	0	0	0	0	507	510	
2	0	0	0	0	507	509	
3	0	0	0	0	508	514	
4	0	0	0	0	508	523	
5	0	0	0	0	505	526	
6	0	0	0	0	506	520	
7	0	0	0	0	506	519	
8	0	0	0	0	506	517	
9	0	0	0	0	503	511	
10	0	0	0	0	502	510	
11	0	0	0	0	502	508	
12	0	0	0	0	505	509	
13	0	0	0	0	505	511	
14	0	0	0	0	505	508	
15	0	0	0	0	507	508	
0	0	0	0	0	511	511	
1	0	0	0	0	509	511	
2	0	0	0	0	504	508	
3	0	0	0	0	504	509	
4	0	0	0	0	504	515	
5	0	0	0	0	504	511	
6	0	0	0	0	506	508	
7	0	0	0	0	504	509	
8	0	0	0	0	506	510	
9	0	0	0	0	505	509	
10	0	0	0	0	510	511	
11	0	0	0	0	514	513	
12	0	0	0	0	511	513	
13	0	0	0	0	502	513	
14	0	0	0	0	500	516	
15	0	0	0	0	505	513	
0	0	0	0	0	505	510	
1	0	0	0	0	504	508	
2	0	0	0	0	501	509	
3	0	0	0	0	500	509	
4	0	0	0	0	504	514	
5	0	0	0	0	507	513	
6	0	0	0	0	502	512	
7	0	0	0	0	502	515	
8	0	0	0	0	505	518	
9	0	0	0	0	508	515	
10	0	0	0	0	507	512	
11	0	0	0	0	507	513	
12	0	0	0	0	505	510	
13	0	0	0	0	506	510	
14	0	0	0	0	505	512	
15	0	0	0	0	507	511	
0	0	0	0	0	506	510	
1	0	0	0	0	507	510	
2	0	0	0	0	507	509	
3	0	0	0	0	505	511	
4	0	0	0	0	507	512	
5	0	0	0	0	507	510	
6	0	0	0	0	506	512	
7	0	0	0	0	508	511	
8	0	0	0	0	508	511	
9	0	0	0	0	505	512	
10	0	0	0	0	505	511	
11	0	0	0	0	507	508	
12	0	0	0	0	506	510	
13	0	0	0	0	509	510	
14	0	0	0	0	505	512	
15	0	0	0	0	504	512	
0	0	0	0	0	507	510	
1	0	0	0	0	500	511	
2	0	0	0	0	501	512	
3	0	0	0	0	502	515	
4	0	0	0	0	501	516	
5	0	0	0	0	506	519	
6	0	0	0	0	506	513	
7	0	0	0	0	507	513	
8	0	0	0	0	504	513	
9	0	0	0	0	505	512	
10	0	0	0	0	502	511	
11	0	0	0	0	503	510	
12	0	0	0	0	506	513	
13	0	0	0	0	503	512	
14	0	0	0	0	505	512	
15	0	0	0	0	504	511	
0	0	0	0	0	505	510	
1	0	0	0	0	509	509	
2	0	0	0	0	508	509	
3	0	0	0	0	507	512	
4	0	0	0	0	506	511	
5	0	0	0	0	505	510	
6	0	0	0	0	505	510	
7	0	0	0	0	507	511	
8	0	0	0	0	507	513	
9	0	0	0	0	507	511	
10	0	0	0	0	508	511	
11	0	0	0	0	504	509	
12	0	0	0	0	503	512	
13	0	0	0	0	504	516	
14	0	0	0	0	508	511	
15	0	0	0	0	509	511	
0	0	0	0	0	507	512	
1	0	0	0	0	501	517	
2	0	0	0	0	497	519	
3	0	0	0	0	503	517	
4	0	0	0	0	505	516	
5	0	0	0	0	504	515	
6	0	0	0	0	505	510	
7	0	0	0	0	508	507	
8	0	0	0	0	511	511	
9	0	0	0	0	510	508	
10	0	0	0	0	506	514	
11	0	0	0	0	503	514	
12	0	0	0	0	504	515	
13	0	0	0	0	506	511	
14	0	0	0	0	505	515	
15	0	0	0	0	506	512	
0	0	0	0	0	506	510	
1	0	0	0	0	505	509	
2	0	0	0	0	505	510	
3	0	0	0	0	506	511	
4	0	0	0	0	507	511	
5	0	0	0	0	506	509	
6	0	0	0	0	505	509	
7	0	0	0	0	502	509	
8	0	0	0	0	504	511	
9	0	0	0	0	506	512	
10	0	0	0	0	505	512	
11	0	0	0	0	506	511	
12	0	0	0	0	510	514	
13	0	0	0	0	510	515	
14	0	0	0	0	508	516	
15	0	0	0	0	507	512	
0	0	0	0	0	508	513	
1	0	0	0	0	508	513	
2	0	0	0	0	498	511	
3	0	0	0	0	492	510	
4	0	0	0	0	500	510	
5	0	0	0	0	504	508	
6	0	0	0	0	505	509	
7	0	0	0	0	506	510	
8	0	0	0	0	506	512	
9	0	0	0	0	508	512	
10	0	0	0	0	507	510	
11	0	0	0	0	507	510	
12	0	0	0	0	507	512	
13	0	0	0	0	505	510	
14	0	0	0	0	508	513	
15	0	0	0	0	507	513	
0	0	0	0	0	512	518	
1	0	0	0	0	507	518	
2	0	0	0	0	499	512	
3	0	0	0	0	501	511	
4	0	0	0	0	504	509	
5	0	0	0	0	503	510	
6	0	0	0	0	504	511	
7	0	0	0	0	505	514	
8	0	0	0	0	508	516	
9	0	0	0	0	505	513	
10	0	0	0	0	507	513	
11	0	0	0	0	506	511	
12	0	0	0	0	506	509	
13	0	0	0	0	504	511	
14	0	0	0	0	507	509	
15	0	0	0	0	506	510	
0	0	0	0	0	505	511	
1	0	0	0	0	505	508	
2	0	0	0	0	508	511	
3	0	0	0	0	506	512	
4	0	0	0	0	507	511	
5	0	0	0	0	507	511	
6	0	0	0	0	506	511	
7	0	0	0	0	507	511	
8	0	0	0	0	507	513	
9	0	0	0	0	505	515	
10	0	0	0	0	504	517	
11	0	0	0	0	504	516	
12	0	0	0	0	504	512	
13	0	0	0	0	501	511	
14	0	0	0	0	505	512	
15	0	0	0	0	506	513	
0	0	0	0	0	507	509	
1	0	0	0	0	506	510	
2	0	0	0	0	508	509	
3	0	0	0	0	507	513	
4	0	0	0	0	504	514	
5	0	0	0	0	506	512	
6	0	0	0	0	502	512	
7	0	0	0	0	503	512	
8	0	0	0	0	505	510	
9	0	0	0	0	507	512	
10	0	0	0	0	510	512	
11	0	0	0	0	508	515	
12	0	0	0	0	504	516	
13	0	0	0	0	503	511	
14	0	0	0	0	504	511	
15	0	0	0	0	509	511	
0	0	0	0	0	507	511	
1	0	0	0	0	506	509	
2	0	0	0	0	504	512	
3	0	0	0	0	505	507	
4	0	0	0	0	505	508	
5	0	0	0	0	498	511	
6	0	0	0	0	502	510	
7	0	0	0	0	503	511	
8	0	0	0	0	504	513	
9	0	0	0	0	505	520	
10	0	0	0	0	507	519	
11	0	0	0	0	504	515	
12	0	0	0	0	505	516	
13	0	0	0	0	505	516	
14	0	0	0	0	508	514	
15	0	0	0	0	509	510	
0	0	0	0	0	509	509	
1	0	0	0	0	510	510	
2	0	0	0	0	510	509	
3	0	0	0	0	510	509	
4	0	0	0	0	510	510	
5	0	0	0	0	507	507	
6	0	0	0	0	496	504	
7	0	0	0	0	494	506	
8	0	0	0	0	501	513	
9	0	0	0	0	504	515	
10	0	0	0	0	505	521	
11	0	0	0	0	506	519	
12	0	0	0	0	507	513	
13	0	0	0	0	508	513	
14	0	0	0	0	507	511	
15	0	0	0	0	507	508	
0	0	0	0	0	507	510	
1	0	0	0	0	507	515	
2	0	0	0	0	507	513	
3	0	0	0	0	508	511	
4	0	0	0	0	505	512	
5	0	0	0	0	504	510	
6	0	0	0	0	505	509	
7	0	0	0	0	505	513	
8	0	0	0	0	505	512	
9	0	0	0	0	507	512	
10	0	0	0	0	507	510	
11	0	0	0	0	506	508	
12	0	0	0	0	506	504	
13	0	0	0	0	505	502	
14	0	0	0	0	505	508	
15	0	0	0	0	504	511	
0	0	0	0	0	504	510	
1	0	0	0	0	505	511	
2	0	0	0	0	503	517	
3	0	0	0	0	504	518	
4	0	0	0	0	506	521	
5	0	0	0	0	507	519	
6	0	0	0	0	511	519	
7	0	0	0	0	505	518	
8	0	0	0	0	508	518	
9	0	0	0	0	509	515	
10	0	0	0	0	508	511	
11	0	0	0	0	504	510	
12	0	0	0	0	504	508	
13	0	0	0	0	505	507	
14	0	0	0	0	503	506	
15	0	0	0	0	504	508	
0	0	0	0	0	504	512	
1	0	0	0	0	506	512	
2	0	0	0	0	510	512	
3	0	0	0	0	510	510	
4	0	0	0	0	503	511	
5	0	0	0	0	502	513	
6	0	0	0	0	504	512	
7	0	0	0	0	505	510	
8	0	0	0	0	507	509	
9	0	0	0	0	506	510	
10	0	0	0	0	504	510	
11	0	0	0	0	503	512	
12	0	0	0	0	500	510	
13	0	0	0	0	496	510	
14	0	0	0	0	503	511	
15	0	0	0	0	505	512	
0	0	0	0	0	507	510	
1	0	0	0	0	507	508	
2	0	0	0	0	508	511	
3	0	0	0	0	507	510	
4	0	0	0	0	508	511	
5	0	0	0	0	506	511	
6	0	0	0	0	506	515	
7	0	0	0	0	506	517	
8	0	0	0	0	509	517	
9	0	0	0	0	508	516	
10	0	0	0	0	505	514	
11	0	0	0	0	504	512	
12	0	0	0	0	505	512	
13	0	0	0	0	506	510	
14	0	0	0	0	505	508	
15	0	0	0	0	504	511	
0	0	0	0	0	505	508	
1	0	0	0	0	504	511	
2	0	0	0	0	504	510	
3	0	0	0	0	505	511	
4	0	0	0	0	504	510	
5	0	0	0	0	507	508	
6	0	0	0	0	505	511	
7	0	0	0	0	505	515	
8	0	0	0	0	507	515	
9	0	0	0	0	505	517	
10	0	0	0	0	506	515	
11	0	0	0	0	504	516	
12	0	0	0	0	503	514	
13	0	0	0	0	504	515	
14	0	0	0	0	505	521	
15	0	0	0	0	507	521	
0	0	0	0	0	505	515	
1	0	0	0	0	504	512	
2	0	0	0	0	508	509	
3	0	0	0	0	511	509	
4	0	0	0	0	508	510	
5	0	0	0	0	503	509	
6	0	0	0	0	507	510	
7	0	0	0	0	503	511	
8	0	0	0	0	499	508	
9	0	0	0	0	504	508	
10	0	0	0	0	501	507	
11	0	0	0	0	504	510	
12	0	0	0	0	511	505	
13	0	0	0	0	510	507	
14	0	0	0	0	506	510	
15	0	0	0	0	500	510	
0	0	0	0	0	499	512	
1	0	0	0	0	506	515	
2	0	0	0	0	507	515	
3	0	0	0	0	508	516	
4	0	0	0	0	509	518	
5	0	0	0	0	506	515	
6	0	0	0	0	506	514	
7	0	0	0	0	503	510	
8	0	0	0	0	497	508	
9	0	0	0	0	497	509	
10	0	0	0	0	507	509	
11	0	0	0	0	509	509	
12	0	0	0	0	507	504	
13	0	0	0	0	508	507	
14	0	0	0	0	509	507	
15	0	0	0	0	508	513	
0	0	0	0	0	509	517	
1	0	0	0	0	507	511	
2	0	0	0	0	503	510	
3	0	0	0	0	500	512	
4	0	0	0	0	499	516	
5	0	0	0	0	500	519	
6	0	0	0	0	503	528	
7	0	0	0	0	508	527	
8	0	0	0	0	511	515	
9	0	0	0	0	510	510	
10	0	0	0	0	508	508	
11	0	0	0	0	506	506	
12	0	0	0	0	503	508	
13	0	0	0	0	505	506	
14	0	0	0	0	505	510	
15	0	0	0	0	506	512	
0	0	0	0	0	505	512	
1	0	0	0	0	507	511	
2	0	0	0	0	504	511	
3	0	0	0	0	503	512	
4	0	0	0	0	503	511	
5	0	0	0	0	505	512	
6	0	0	0	0	508	510	
7	0	0	0	0	506	511	
8	0	0	0	0	507	511	
9	0	0	0	0	506	510	
10	0	0	0	0	504	508	
11	0	0	0	0	504	510	
12	0	0	0	0	504	513	
13	0	0	0	0	504	513	
14	0	0	0	0	503	512	
15	0	0	0	0	498	515	
0	0	0	0	0	503	514	
1	0	0	0	0	508	514	
2	0	0	0	0	508	513	
3	0	0	0	0	504	510	
4	0	0	0	0	505	508	
5	0	0	0	0	508	510	
6	0	0	0	0	506	515	
7	0	0	0	0	508	512	
8	0	0	0	0	508	511	
9	0	0	0	0	504	509	
10	0	0	0	0	504	509	
11	0	0	0	0	507	510	
12	0	0	0	0	506	511	
13	0	0	0	0	505	511	
14	0	0	0	0	505	510	
15	0	0	0	0	507	509	
0	0	0	0	0	508	509	
1	0	0	0	0	510	508	
2	0	0	0	0	509	508	
3	0	0	0	0	509	515	
4	0	0	0	0	502	517	
5	0	0	0	0	498	513	
6	0	0	0	0	497	512	
7	0	0	0	0	501	510	
8	0	0	0	0	508	515	
9	0	0	0	0	507	515	
10	0	0	0	0	509	513	
11	0	0	0	0	510	516	
12	0	0	0	0	508	520	
13	0	0	0	0	507	515	
14	0	0	0	0	505	514	
15	0	0	0	0	504	511	
0	0	0	0	0	503	511	
1	0	0	0	0	503	511	
2	0	0	0	0	503	514	
3	0	0	0	0	505	511	
4	0	0	0	0	506	508	
5	0	0	0	0	507	508	
6	0	0	0	0	506	508	
7	0	0	0	0	504	509	
8	0	0	0	0	505	508	
9	0	0	0	0	505	510	
10	0	0	0	0	508	512	
11	0	0	0	0	507	515	
12	0	0	0	0	503	516	
13	0	0	0	0	504	515	
14	0	0	0	0	504	513	
15	0	0	0	0	508	510	
0	0	0	0	0	505	508	
1	0	0	0	0	507	509	
2	0	0	0	0	506	510	
3	0	0	0	0	506	510	
4	0	0	0	0	508	514	
5	0	0	0	0	505	521	
6	0	0	0	0	505	516	
7	0	0	0	0	506	512	
8	0	0	0	0	505	511	
9	0	0	0	0	504	510	
10	0	0	0	0	508	509	
11	0	0	0	0	507	508	
12	0	0	0	0	509	509	
13	0	0	0	0	508	510	
14	0	0	0	0	505	515	
15	0	0	0	0	502	516	
0	0	0	0	0	495	516	
1	0	0	0	0	494	512	
2	0	0	0	0	499	511	
3	0	0	0	0	499	509	
4	0	0	0	0	501	513	
5	0	0	0	0	508	510	
6	0	0	0	0	512	509	
7	0	0	0	0	509	511	
8	0	0	0	0	510	509	
9	0	0	0	0	510	508	
10	0	0	0	0	508	509	
11	0	0	0	0	507	510	
12	0	0	0	0	505	509	
13	0	0	0	0	506	515	
14	0	0	0	0	507	515	
15	0	0	0	0	505	516	
0	0	0	0	0	505	516	
1	0	0	0	0	508	513	
2	0	0	0	0	506	512	
3	0	0	0	0	506	511	
4	0	0	0	0	506	511	
5	0	0	0	0	503	508	
6	0	0	0	0	503	512	
7	0	0	0	0	505	511	
8	0	0	0	0	507	513	
9	0	0	0	0	511	513	
10	0	0	0	0	508	516	
11	0	0	0	0	510	518	
12	0	0	0	0	514	515	
13	0	0	0	0	510	513	
14	0	0	0	0	502	511	
15	0	0	0	0	492	510	
0	0	0	0	0	494	511	
1	0	0	0	0	496	512	
2	0	0	0	0	498	512	
3	0	0	0	0	504	511	
4	0	0	0	0	507	510	
5	0	0	0	0	506	510	
6	0	0	0	0	508	512	
7	0	0	0	0	505	510	
8	0	0	0	0	504	510	
9	0	0	0	0	506	512	
10	0	0	0	0	507	513	
11	0	0	0	0	507	510	
12	0	0	0	0	510	515	
13	0	0	0	0	508	511	
14	0	0	0	0	507	515	
15	0	0	0	0	505	512	
0	0	0	0	0	505	512	
1	0	0	0	0	503	512	
2	0	0	0	0	502	512	
3	0	0	0	0	508	511	
4	0	0	0	0	505	513	
5	0	0	0	0	510	512	
6	0	0	0	0	508	511	
7	0	0	0	0	504	511	
8	0	0	0	0	506	510	
9	0	0	0	0	504	512	
10	0	0	0	0	503	513	
11	0	0	0	0	504	513	
12	0	0	0	0	505	512	
13	0	0	0	0	505	512	
14	0	0	0	0	504	512	
15	0	0	0	0	504	512	
0	0	0	0	0	505	509	
1	0	0	0	0	504	508	
2	0	0	0	0	505	508	
3	0	0	0	0	504	510	
4	0	0	0	0	502	511	
5	0	0	0	0	508	513	
6	0	0	0	0	507	513	
7	0	0	0	0	505	514	
8	0	0	0	0	505	515	
9	0	0	0	0	504	512	
10	0	0	0	0	508	513	
11	0	0	0	0	505	514	
12	0	0	0	0	508	515	
13	0	0	0	0	509	513	
14	0	0	0	0	508	511	
15	0	0	0	0	508	510	
0	0	0	0	0	505	508	
1	0	0	0	0	499	507	
2	0	0	0	0	499	508	
3	0	0	0	0	505	514	
4	0	0	0	0	506	518	
5	0	0	0	0	504	513	
6	0	0	0	0	502	508	
7	0	0	0	0	500	510	
8	0	0	0	0	506	510	
9	0	0	0	0	511	511	
10	0	0	0	0	510	513	
11	0	0	0	0	511	520	
12	0	0	0	0	505	518	
13	0	0	0	0	499	516	
14	0	0	0	0	501	513	
15	0	0	0	0	502	515	
0	0	0	0	0	506	516	
1	0	0	0	0	505	511	
2	0	0	0	0	507	510	
3	0	0	0	0	504	507	
4	0	0	0	0	504	510	
5	0	0	0	0	504	512	
6	0	0	0	0	505	513	
7	0	0	0	0	505	513	
8	0	0	0	0	506	510	
9	0	0	0	0	508	508	
10	0	0	0	0	505	507	
11	0	0	0	0	506	510	
12	0	0	0	0	507	508	
13	0	0	0	0	506	508	
14	0	0	0	0	505	511	
15	0	0	0	0	504	511	
0	0	0	0	0	506	513	
1	0	0	0	0	506	512	
2	0	0	0	0	506	511	
3	0	0	0	0	505	512	
4	0	0	0	0	505	512	
5	0	0	0	0	507	513	
6	0	0	0	0	505	513	
7	0	0	0	0	504	513	
8	0	0	0	0	504	513	
9	0	0	0	0	507	512	
10	0	0	0	0	508	512	
11	0	0	0	0	508	512	
12	0	0	0	0	507	512	
13	0	0	0	0	506	510	
14	0	0	0	0	510	512	
15	0	0	0	0	508	510	
0	0	0	0	0	496	511	
1	0	0	0	0	499	512	
2	0	0	0	0	496	512	
3	0	0	0	0	504	512	
4	0	0	0	0	505	513	
5	0	0	0	0	509	510	
6	0	0	0	0	507	508	
7	0	0	0	0	507	513	
8	0	0	0	0	510	513	
9	0	0	0	0	507	510	
10	0	0	0	0	505	509	
11	0	0	0	0	505	508	
12	0	0	0	0	508	510	
13	0	0	0	0	509	516	
14	0	0	0	0	508	526	
15	0	0	0	0	503	521	
0	0	0	0	0	505	514	
1	0	0	0	0	507	510	
2	0	0	0	0	508	510	
3	0	0	0	0	507	511	
4	0	0	0	0	504	509	
5	0	0	0	0	504	510	
6	0	0	0	0	510	510	
7	0	0	0	0	504	510	
8	0	0	0	0	502	508	
9	0	0	0	0	503	510	
10	0	0	0	0	502	511	
11	0	0	0	0	502	513	
12	0	0	0	0	505	510	
13	0	0	0	0	506	513	
14	0	0	0	0	505	513	
15	0	0	0	0	505	513	
0	0	0	0	0	504	511	
1	0	0	0	0	507	512	
2	0	0	0	0	506	512	
3	0	0	0	0	505	511	
4	0	0	0	0	507	512	
5	0	0	0	0	505	513	
6	0	0	0	0	503	511	
7	0	0	0	0	505	508	
8	0	0	0	0	506	509	
9	0	0	0	0	506	509	
10	0	0	0	0	506	510	
11	0	0	0	0	506	511	
12	0	0	0	0	507	511	
13	0	0	0	0	507	513	
14	0	0	0	0	509	513	
15	0	0	0	0	508	516	
0	0	0	0	0	508	516	
1	0	0	0	0	506	511	
2	0	0	0	0	502	518	
3	0	0	0	0	503	516	
4	0	0	0	0	505	514	
5	0	0	0	0	506	511	
6	0	0	0	0	501	511	
7	0	0	0	0	499	512	
8	0	0	0	0	504	510	
9	0	0	0	0	505	509	
10	0	0	0	0	508	512	
11	0	0	0	0	507	508	
12	0	0	0	0	505	508	
13	0	0	0	0	503	510	
14	0	0	0	0	504	512	
15	0	0	0	0	507	515	
0	0	0	0	0	507	518	
1	0	0	0	0	508	514	
2	0	0	0	0	507	512	
3	0	0	0	0	505	512	
4	0	0	0	0	505	509	
5	0	0	0	0	505	511	
6	0	0	0	0	508	514	
7	0	0	0	0	509	511	
8	0	0	0	0	511	511	
9	0	0	0	0	510	509	
10	0	0	0	0	508	508	
11	0	0	0	0	504	506	
12	0	0	0	0	501	507	
13	0	0	0	0	499	513	
14	0	0	0	0	504	520	
15	0	0	0	0	504	519	
0	0	0	0	0	503	515	
1	0	0	0	0	504	509	
2	0	0	0	0	504	509	
3	0	0	0	0	504	511	
4	0	0	0	0	505	513	
5	0	0	0	0	506	512	
6	0	0	0	0	506	510	
7	0	0	0	0	505	510	
8	0	0	0	0	506	511	
9	0	0	0	0	505	511	
10	0	0	0	0	503	509	
11	0	0	0	0	506	508	
12	0	0	0	0	505	503	
13	0	0	0	0	505	505	
14	0	0	0	0	504	508	
15	0	0	0	0	498	510	
0	0	0	0	0	502	511	
1	0	0	0	0	507	512	
2	0	0	0	0	510	513	
3	0	0	0	0	508	516	
4	0	0	0	0	510	513	
5	0	0	0	0	508	522	
6	0	0	0	0	507	518	
7	0	0	0	0	506	516	
8	0	0	0	0	503	513	
9	0	0	0	0	506	510	
10	0	0	0	0	505	508	
11	0	0	0	0	506	508	
12	0	0	0	0	502	511	
13	0	0	0	0	503	511	
14	0	0	0	0	502	516	
15	0	0	0	0	504	516	
0	0	0	0	0	506	516	
1	0	0	0	0	505	521	
2	0	0	0	0	505	523	
3	0	0	0	0	507	519	
4	0	0	0	0	506	514	
5	0	0	0	0	505	510	
6	0	0	0	0	505	504	
7	0	0	0	0	506	507	
8	0	0	0	0	506	507	
9	0	0	0	0	507	509	
10	0	0	0	0	506	509	
11	0	0	0	0	507	510	
12	0	0	0	0	505	511	
13	0	0	0	0	504	507	
14	0	0	0	0	505	512	
15	0	0	0	0	506	513	
0	0	0	0	0	505	513	
1	0	0	0	0	502	512	
2	0	0	0	0	505	510	
3	0	0	0	0	504	508	
4	0	0	0	0	504	512	
5	0	0	0	0	505	512	
6	0	0	0	0	506	515	
7	0	0	0	0	507	514	
8	0	0	0	0	508	512	
9	0	0	0	0	509	511	
10	0	0	0	0	510	510	
11	0	0	0	0	510	510	
12	0	0	0	0	508	510	
13	0	0	0	0	499	510	
14	0	0	0	0	500	510	
15	0	0	0	0	498	513	
0	0	0	0	0	501	510	
1	0	0	0	0	504	511	
2	0	0	0	0	507	513	
3	0	0	0	0	506	511	
4	0	0	0	0	504	511	
5	0	0	0	0	504	513	
6	0	0	0	0	505	519	
7	0	0	0	0	502	518	
8	0	0	0	0	505	513	
9	0	0	0	0	505	512	
10	0	0	0	0	508	511	
11	0	0	0	0	508	511	
12	0	0	0	0	508	512	
13	0	0	0	0	508	512	
14	0	0	0	0	508	512	
15	0	0	0	0	505	513	
0	0	0	0	0	504	511	
1	0	0	0	0	504	513	
2	0	0	0	0	502	511	
3	0	0	0	0	500	508	
4	0	0	0	0	501	509	
5	0	0	0	0	502	507	
6	0	0	0	0	510	510	
7	0	0	0	0	505	509	
8	0	0	0	0	502	512	
9	0	0	0	0	507	514	
10	0	0	0	0	509	516	
11	0	0	0	0	513	514	
12	0	0	0	0	513	512	
13	0	0	0	0	512	514	
14	0	0	0	0	512	515	
15	0	0	0	0	502	513	
0	0	0	0	0	497	512	
1	0	0	0	0	500	513	
2	0	0	0	0	495	509	
3	0	0	0	0	496	510	
4	0	0	0	0	504	509	
5	0	0	0	0	506	509	
6	0	0	0	0	507	511	
7	0	0	0	0	507	510	
8	0	0	0	0	507	508	
9	0	0	0	0	509	507	
10	0	0	0	0	507	510	
11	0	0	0	0	507	510	
12	0	0	0	0	508	516	
13	0	0	0	0	505	517	
14	0	0	0	0	507	519	
15	0	0	0	0	506	520	
0	0	0	0	0	504	519	
1	0	0	0	0	506	516	
2	0	0	0	0	502	521	
3	0	0	0	0	499	517	
4	0	0	0	0	504	510	
5	0	0	0	0	506	505	
6	0	0	0	0	507	507	
7	0	0	0	0	508	508	
8	0	0	0	0	508	508	
9	0	0	0	0	505	507	
10	0	0	0	0	502	506	
11	0	0	0	0	505	511	
12	0	0	0	0	505	510	
13	0	0	0	0	507	512	
14	0	0	0	0	505	511	
15	0	0	0	0	505	509	
0	0	0	0	0	505	508	
1	0	0	0	0	505	510	
2	0	0	0	0	504	511	
3	0	0	0	0	510	512	
4	0	0	0	0	511	513	
5	0	0	0	0	508	514	
6	0	0	0	0	504	514	
7	0	0	0	0	503	512	
8	0	0	0	0	501	515	
9	0	0	0	0	505	512	
10	0	0	0	0	507	509	
11	0	0	0	0	504	510	
12	0	0	0	0	504	516	
13	0	0	0	0	506	515	
14	0	0	0	0	504	515	
15	0	0	0	0	502	511	
0	0	0	0	0	505	512	
1	0	0	0	0	505	511	
2	0	0	0	0	508	512	
3	0	0	0	0	505	511	
4	0	0	0	0	508	515	
5	0	0	0	0	507	515	
6	0	0	0	0	508	514	
7	0	0	0	0	506	511	
8	0	0	0	0	507	507	
9	0	0	0	0	503	507	
10	0	0	0	0	503	511	
11	0	0	0	0	505	515	
12	0	0	0	0	507	511	
13	0	0	0	0	503	511	
14	0	0	0	0	504	511	
15	0	0	0	0	507	510	
0	0	0	0	0	507	513	
1	0	0	0	0	508	512	
2	0	0	0	0	508	510	
3	0	0	0	0	508	514	
4	0	0	0	0	507	515	
5	0	0	0	0	499	515	
6	0	0	0	0	502	512	
7	0	0	0	0	498	509	
8	0	0	0	0	501	511	
9	0	0	0	0	506	512	
10	0	0	0	0	506	512	
11	0	0	0	0	509	512	
12	0	0	0	0	507	509	
13	0	0	0	0	506	510	
14	0	0	0	0	506	510	
15	0	0	0	0	507	513	
0	0	0	0	0	505	510	
1	0	0	0	0	503	510	
2	0	0	0	0	499	512	
3	0	0	0	0	506	514	
4	0	0	0	0	507	513	
5	0	0	0	0	507	515	
6	0	0	0	0	508	511	
7	0	0	0	0	506	511	
8	0	0	0	0	504	511	
9	0	0	0	0	503	513	
10	0	0	0	0	503	510	
11	0	0	0	0	503	508	
12	0	0	0	0	508	511	
13	0	0	0	0	508	510	
14	0	0	0	0	508	513	
15	0	0	0	0	511	510	
0	0	0	0	0	512	511	
1	0	0	0	0	510	512	
2	0	0	0	0	506	513	
3	0	0	0	0	499	515	
4	0	0	0	0	499	515	
5	0	0	0	0	503	515	
6	0	0	0	0	504	513	
7	0	0	0	0	501	516	
8	0	0	0	0	504	514	
9	0	0	0	0	505	511	
10	0	0	0	0	507	509	
11	0	0	0	0	507	510	
12	0	0	0	0	506	511	
13	0	0	0	0	508	510	
14	0	0	0	0	506	512	
15	0	0	0	0	506	511	
0	0	0	0	0	508	510	
1	0	0	0	0	507	511	
2	0	0	0	0	504	509	
3	0	0	0	0	504	510	
4	0	0	0	0	507	509	
5	0	0	0	0	507	510	
6	0	0	0	0	506	510	
7	0	0	0	0	504	514	
8	0	0	0	0	499	512	
9	0	0	0	0	502	511	
10	0	0	0	0	505	508	
11	0	0	0	0	505	508	
12	0	0	0	0	505	510	
13	0	0	0	0	504	522	
14	0	0	0	0	506	533	
15	0	0	0	0	507	525	
0	0	0	0	0	507	518	
1	0	0	0	0	507	510	
2	0	0	0	0	505	508	
3	0	0	0	0	505	507	
4	0	0	0	0	505	510	
5	0	0	0	0	505	513	
6	0	0	0	0	507	510	
7	0	0	0	0	506	511	
8	0	0	0	0	507	508	
9	0	0	0	0	505	508	
10	0	0	0	0	504	511	
11	0	0	0	0	504	509	
12	0	0	0	0	506	511	
13	0	0	0	0	508	509	
14	0	0	0	0	509	512	
15	0	0	0	0	505	512	
0	0	0	0	0	505	516	
1	0	0	0	0	506	514	
2	0	0	0	0	511	508	
3	0	0	0	0	503	510	
4	0	0	0	0	499	512	
5	0	0	0	0	504	511	
6	0	0	0	0	509	512	
7	0	0	0	0	507	513	
8	0	0	0	0	508	513	
9	0	0	0	0	505	511	
10	0	0	0	0	505	509	
11	0	0	0	0	506	508	
12	0	0	0	0	504	507	
13	0	0	0	0	503	508	
14	0	0	0	0	502	511	
15	0	0	0	0	505	513	
0	0	0	0	0	504	509	
1	0	0	0	0	505	512	
2	0	0	0	0	504	514	
3	0	0	0	0	505	519	
4	0	0	0	0	505	520	
5	0	0	0	0	508	526	
6	0	0	0	0	505	519	
7	0	0	0	0	508	513	
8	0	0	0	0	507	506	
9	0	0	0	0	503	503	
10	0	0	0	0	502	506	
11	0	0	0	0	503	508	
12	0	0	0	0	505	510	
13	0	0	0	0	505	508	
14	0	0	0	0	506	509	
15	0	0	0	0	507	515	
0	0	0	0	0	508	519	
1	0	0	0	0	508	519	
2	0	0	0	0	507	513	
3	0	0	0	0	507	511	
4	0	0	0	0	509	510	
5	0	0	0	0	508	510	
6	0	0	0	0	509	509	
7	0	0	0	0	504	508	
8	0	0	0	0	499	510	
9	0	0	0	0	501	508	
10	0	0	0	0	503	509	
11	0	0	0	0	508	509	
12	0	0	0	0	506	510	
13	0	0	0	0	504	511	
14	0	0	0	0	507	512	
15	0	0	0	0	506	511	
0	0	0	0	0	507	512	
1	0	0	0	0	506	513	
2	0	0	0	0	503	512	
3	0	0	0	0	502	509	
4	0	0	0	0	504	515	
5	0	0	0	0	503	514	
6	0	0	0	0	499	512	
7	0	0	0	0	506	513	
8	0	0	0	0	509	511	
9	0	0	0	0	506	512	
10	0	0	0	0	505	511	
11	0	0	0	0	505	512	
12	0	0	0	0	505	513	
13	0	0	0	0	507	511	
14	0	0	0	0	508	512	
15	0	0	0	0	505	512	
0	0	0	0	0	507	512	
1	0	0	0	0	507	510	
2	0	0	0	0	507	508	
3	0	0	0	0	505	512	
4	0	0	0	0	508	512	
5	0	0	0	0	506	515	
6	0	0	0	0	508	517	
7	0	0	0	0	508	516	
8	0	0	0	0	509	513	
9	0	0	0	0	505	513	
10	0	0	0	0	501	512	
11	0	0	0	0	497	506	
12	0	0	0	0	503	509	
13	0	0	0	0	500	511	
14	0	0	0	0	504	511	
15	0	0	0	0	507	514	
0	0	0	0	0	505	510	
1	0	0	0	0	508	511	
2	0	0	0	0	507	512	
3	0	0	0	0	503	512	
4	0	0	0	0	501	510	
5	0	0	0	0	500	509	
6	0	0	0	0	505	511	
7	0	0	0	0	508	514	
8	0	0	0	0	509	511	
9	0	0	0	0	508	513	
10	0	0	0	0	508	513	
11	0	0	0	0	508	514	
12	0	0	0	0	507	516	
13	0	0	0	0	507	512	
14	0	0	0	0	506	514	
15	0	0	0	0	506	508	
0	0	0	0	0	503	508	
1	0	0	0	0	503	509	
2	0	0	0	0	504	510	
3	0	0	0	0	505	515	
4	0	0	0	0	504	515	
5	0	0	0	0	505	516	
6	0	0	0	0	510	512	
7	0	0	0	0	511	510	
8	0	0	0	0	507	509	
9	0	0	0	0	506	510	
10	0	0	0	0	509	512	
11	0	0	0	0	505	515	
12	0	0	0	0	507	513	
13	0	0	0	0	508	516	
14	0	0	0	0	506	515	
15	0	0	0	0	503	512	
0	0	0	0	0	502	508	
1	0	0	0	0	504	510	
2	0	0	0	0	505	508	
3	0	0	0	0	506	509	
4	0	0	0	0	506	510	
5	0	0	0	0	503	514	
6	0	0	0	0	504	519	
7	0	0	0	0	505	515	
8	0	0	0	0	505	510	
9	0	0	0	0	504	510	
10	0	0	0	0	505	512	
11	0	0	0	0	506	511	
12	0	0	0	0	507	513	
13	0	0	0	0	504	508	
14	0	0	0	0	504	508	
15	0	0	0	0	503	511	
0	0	0	0	0	504	509	
1	0	0	0	0	505	508	
2	0	0	0	0	506	508	
3	0	0	0	0	505	511	
4	0	0	0	0	504	510	
5	0	0	0	0	504	511	
6	0	0	0	0	505	513	
7	0	0	0	0	505	513	
8	0	0	0	0	505	512	
9	0	0	0	0	508	512	
10	0	0	0	0	508	516	
11	0	0	0	0	510	514	
12	0	0	0	0	511	510	
13	0	0	0	0	510	511	
14	0	0	0	0	506	509	
15	0	0	0	0	504	507	
0	0	0	0	0	501	508	
1	0	0	0	0	498	508	
2	0	0	0	0	502	509	
3	0	0	0	0	503	512	
4	0	0	0	0	504	513	
5	0	0	0	0	499	513	
6	0	0	0	0	507	513	
7	0	0	0	0	511	512	
8	0	0	0	0	504	519	
9	0	0	0	0	505	520	
10	0	0	0	0	505	521	
11	0	0	0	0	505	518	
12	0	0	0	0	509	516	
13	0	0	0	0	507	511	
14	0	0	0	0	505	508	
15	0	0	0	0	505	508	
0	0	0	0	0	508	511	
1	0	0	0	0	505	515	
2	0	0	0	0	505	511	
3	0	0	0	0	505	510	
4	0	0	0	0	506	511	
5	0	0	0	0	508	509	
6	0	0	0	0	510	508	
7	0	0	0	0	510	511	
8	0	0	0	0	509	509	
9	0	0	0	0	508	512	
10	0	0	0	0	509	511	
11	0	0	0	0	507	511	
12	0	0	0	0	505	510	
13	0	0	0	0	503	512	
14	0	0	0	0	502	509	
15	0	0	0	0	501	511	
0	0	0	0	0	502	513	
1	0	0	0	0	502	511	
2	0	0	0	0	493	511	
3	0	0	0	0	496	512	
4	0	0	0	0	500	511	
5	0	0	0	0	502	511	
6	0	0	0	0	506	513	
7	0	0	0	0	507	512	
8	0	0	0	0	508	510	
9	0	0	0	0	508	512	
10	0	0	0	0	510	511	
11	0	0	0	0	509	509	
12	0	0	0	0	511	512	
13	0	0	0	0	508	510	
14	0	0	0	0	506	511	
15	0	0	0	0	508	512	
0	0	0	0	0	505	510	
1	0	0	0	0	502	518	
2	0	0	0	0	504	518	
3	0	0	0	0	504	516	
4	0	0	0	0	508	513	
5	0	0	0	0	510	512	
6	0	0	0	0	509	515	
7	0	0	0	0	507	514	
8	0	0	0	0	504	514	
9	0	0	0	0	505	513	
10	0	0	0	0	504	509	
11	0	0	0	0	504	511	
12	0	0	0	0	505	511	
13	0	0	0	0	505	511	
14	0	0	0	0	504	510	
15	0	0	0	0	507	511	
0	0	0	0	0	508	512	
1	0	0	0	0	505	515	
2	0	0	0	0	507	516	
3	0	0	0	0	510	512	
4	0	0	0	0	506	509	
5	0	0	0	0	501	510	
6	0	0	0	0	500	511	
7	0	0	0	0	503	510	
8	0	0	0	0	506	512	
9	0	0	0	0	504	511	
10	0	0	0	0	505	511	
11	0	0	0	0	504	512	
12	0	0	0	0	505	511	
13	0	0	0	0	505	510	
14	0	0	0	0	505	510	
15	0	0	0	0	509	512	
0	0	0	0	0	508	513	
1	0	0	0	0	506	512	
2	0	0	0	0	508	511	
3	0	0	0	0	503	508	
4	0	0	0	0	500	510	
5	0	0	0	0	503	510	
6	0	0	0	0	504	510	
7	0	0	0	0	508	511	
8	0	0	0	0	507	511	
9	0	0	0	0	505	511	
10	0	0	0	0	504	515	
11	0	0	0	0	506	515	
12	0	0	0	0	506	515	
13	0	0	0	0	507	518	
14	0	0	0	0	507	518	
15	0	0	0	0	506	516	
0	0	0	0	0	506	515	
1	0	0	0	0	503	514	
2	0	0	0	0	505	509	
3	0	0	0	0	505	507	
4	0	0	0	0	506	508	
5	0	0	0	0	506	508	
6	0	0	0	0	505	510	
7	0	0	0	0	505	510	
8	0	0	0	0	504	508	
9	0	0	0	0	504	508	
10	0	0	0	0	504	508	
11	0	0	0	0	505	508	
12	0	0	0	0	508	507	
13	0	0	0	0	511	509	
14	0	0	0	0	511	508	
15	0	0	0	0	509	512	
0	0	0	0	0	507	517	
1	0	0	0	0	500	523	
2	0	0	0	0	499	527	
3	0	0	0	0	501	521	
4	0	0	0	0	506	517	
5	0	0	0	0	507	516	
6	0	0	0	0	508	511	
7	0	0	0	0	507	511	
8	0	0	0	0	506	509	
9	0	0	0	0	505	508	
10	0	0	0	0	505	508	
11	0	0	0	0	507	512	
12	0	0	0	0	508	515	
13	0	0	0	0	507	510	
14	0	0	0	0	504	507	
15	0	0	0	0	501	508	
0	0	0	0	0	499	508	
1	0	0	0	0	507	510	
2	0	0	0	0	508	510	
3	0	0	0	0	508	510	
4	0	0	0	0	507	510	
5	0	0	0	0	508	511	
6	0	0	0	0	505	512	
7	0	0	0	0	505	515	
8	0	0	0	0	502	516	
9	0	0	0	0	500	514	
10	0	0	0	0	496	512	
11	0	0	0	0	501	513	
12	0	0	0	0	506	510	
13	0	0	0	0	510	510	
14	0	0	0	0	509	512	
15	0	0	0	0	505	511	
0	0	0	0	0	507	510	
1	0	0	0	0	505	510	
2	0	0	0	0	508	511	
3	0	0	0	0	505	517	
4	0	0	0	0	508	520	
5	0	0	0	0	506	512	
6	0	0	0	0	505	514	
7	0	0	0	0	503	510	
8	0	0	0	0	506	512	
9	0	0	0	0	505	509	
10	0	0	0	0	504	508	
11	0	0	0	0	508	505	
12	0	0	0	0	508	507	
13	0	0	0	0	510	510	
14	0	0	0	0	509	508	
15	0	0	0	0	505	511	
0	0	0	0	0	505	510	
1	0	0	0	0	505	513	
2	0	0	0	0	505	511	
3	0	0	0	0	504	514	
4	0	0	0	0	503	515	
5	0	0	0	0	503	517	
6	0	0	0	0	504	519	
7	0	0	0	0	508	515	
8	0	0	0	0	509	513	
9	0	0	0	0	506	513	
10	0	0	0	0	506	508	
11	0	0	0	0	497	510	
12	0	0	0	0	496	515	
13	0	0	0	0	502	513	
14	0	0	0	0	507	511	
15	0	0	0	0	508	509	
0	0	0	0	0	507	511	
1	0	0	0	0	507	510	
2	0	0	0	0	504	514	
3	0	0	0	0	505	512	
4	0	0	0	0	505	510	
5	0	0	0	0	507	509	
6	0	0	0	0	507	508	
7	0	0	0	0	505	511	
8	0	0	0	0	504	511	
9	0	0	0	0	505	512	
10	0	0	0	0	507	514	
11	0	0	0	0	507	513	
12	0	0	0	0	504	512	
13	0	0	0	0	504	510	
14	0	0	0	0	506	508	
15	0	0	0	0	506	510	
0	0	0	0	0	508	511	
1	0	0	0	0	503	509	
2	0	0	0	0	505	511	
3	0	0	0	0	504	510	
4	0	0	0	0	508	510	
5	0	0	0	0	508	512	
6	0	0	0	0	503	518	
7	0	0	0	0	504	518	
8	0	0	0	0	504	515	
9	0	0	0	0	504	514	
10	0	0	0	0	504	513	
11	0	0	0	0	504	519	
12	0	0	0	0	507	515	
13	0	0	0	0	506	512	
14	0	0	0	0	504	510	
15	0	0	0	0	505	509	
0	0	0	0	0	508	511	
1	0	0	0	0	504	510	
2	0	0	0	0	505	511	
3	0	0	0	0	504	511	
4	0	0	0	0	507	510	
5	0	0	0	0	508	511	
6	0	0	0	0	510	510	
7	0	0	0	0	507	510	
8	0	0	0	0	505	511	
9	0	0	0	0	505	514	
10	0	0	0	0	505	515	
11	0	0	0	0	506	515	
12	0	0	0	0	503	515	
13	0	0	0	0	502	512	
14	0	0	0	0	502	510	
15	0	0	0	0	499	510	
0	0	0	0	0	504	510	
1	0	0	0	0	504	516	
2	0	0	0	0	508	516	
3	0	0	0	0	509	516	
4	0	0	0	0	508	517	
5	0	0	0	0	507	511	
6	0	0	0	0	504	510	
7	0	0	0	0	504	508	
8	0	0	0	0	508	507	
9	0	0	0	0	508	512	
10	0	0	0	0	505	511	
11	0	0	0	0	505	511	
12	0	0	0	0	504	510	
13	0	0	0	0	505	508	
14	0	0	0	0	503	510	
15	0	0	0	0	507	510	
0	0	0	0	0	507	516	
1	0	0	0	0	508	516	
2	0	0	0	0	511	513	
3	0	0	0	0	511	511	
4	0	0	0	0	507	511	
5	0	0	0	0	498	510	
6	0	0	0	0	500	511	
7	0	0	0	0	503	510	
8	0	0	0	0	504	511	
9	0	0	0	0	505	511	
10	0	0	0	0	508	511	
11	0	0	0	0	507	510	
12	0	0	0	0	508	511	
13	0	0	0	0	507	508	
14	0	0	0	0	502	510	
15	0	0	0	0	499	515	
0	0	0	0	0	503	513	
1	0	0	0	0	506	513	
2	0	0	0	0	506	513	
3	0	0	0	0	506	513	
4	0	0	0	0	507	518	
5	0	0	0	0	502	515	
6	0	0	0	0	504	515	
7	0	0	0	0	506	513	
8	0	0	0	0	507	509	
9	0	0	0	0	507	510	
10	0	0	0	0	508	510	
11	0	0	0	0	508	511	
12	0	0	0	0	508	513	
13	0	0	0	0	507	508	
14	0	0	0	0	504	512	
15	0	0	0	0	503	510	
0	0	0	0	0	500	509	
1	0	0	0	0	499	511	
2	0	0	0	0	507	511	
3	0	0	0	0	510	512	
4	0	0	0	0	509	511	
5	0	0	0	0	508	512	
6	0	0	0	0	504	514	
7	0	0	0	0	504	513	
8	0	0	0	0	505	512	
9	0	0	0	0	509	512	
10	0	0	0	0	509	515	
11	0	0	0	0	508	510	
12	0	0	0	0	503	510	
13	0	0	0	0	504	511	
14	0	0	0	0	505	511	
15	0	0	0	0	503	510	
0	0	0	0	0	504	510	
1	0	0	0	0	502	510	
2	0	0	0	0	504	511	
3	0	0	0	0	505	515	
4	0	0	0	0	508	512	
5	0	0	0	0	507	511	
6	0	0	0	0	507	511	
7	0	0	0	0	506	512	
8	0	0	0	0	508	512	
9	0	0	0	0	507	509	
10	0	0	0	0	504	510	
11	0	0	0	0	500	511	
12	0	0	0	0	502	511	
13	0	0	0	0	505	514	
14	0	0	0	0	505	520	
15	0	0	0	0	502	519	
0	0	0	0	0	505	520	
1	0	0	0	0	507	520	
2	0	0	0	0	508	513	
3	0	0	0	0	507	510	
4	0	0	0	0	506	509	
5	0	0	0	0	506	509	
6	0	0	0	0	509	508	
7	0	0	0	0	508	510	
8	0	0	0	0	502	511	
9	0	0	0	0	498	508	
10	0	0	0	0	505	510	
11	0	0	0	0	507	512	
12	0	0	0	0	508	512	
13	0	0	0	0	507	509	
14	0	0	0	0	505	511	
15	0	0	0	0	504	513	
0	0	0	0	0	508	512	
1	0	0	0	0	510	511	
2	0	0	0	0	507	512	
3	0	0	0	0	504	512	
4	0	0	0	0	504	512	
5	0	0	0	0	504	513	
6	0	0	0	0	504	511	
7	0	0	0	0	495	513	
8	0	0	0	0	498	511	
9	0	0	0	0	504	513	
10	0	0	0	0	506	511	
11	0	0	0	0	505	511	
12	0	0	0	0	508	513	
13	0	0	0	0	508	511	
14	0	0	0	0	506	512	
15	0	0	0	0	508	509	
0	0	0	0	0	510	512	
1	0	0	0	0	508	511	
2	0	0	0	0	506	513	
3	0	0	0	0	502	512	
4	0	0	0	0	504	511	
5	0	0	0	0	508	513	
6	0	0	0	0	507	513	
7	0	0	0	0	504	511	
8	0	0	0	0	505	513	
9	0	0	0	0	505	512	
10	0	0	0	0	507	513	
11	0	0	0	0	508	512	
12	0	0	0	0	507	512	
13	0	0	0	0	511	512	
14	0	0	0	0	510	512	
15	0	0	0	0	499	512	
0	0	0	0	0	499	512	
1	0	0	0	0	502	509	
2	0	0	0	0	502	508	
3	0	0	0	0	503	507	
4	0	0	0	0	504	508	
5	0	0	0	0	506	511	
6	0	0	0	0	509	512	
7	0	0	0	0	505	511	
8	0	0	0	0	508	511	
9	0	0	0	0	506	514	
10	0	0	0	0	506	517	
11	0	0	0	0	508	516	
12	0	0	0	0	507	515	
13	0	0	0	0	508	516	
14	0	0	0	0	508	512	
15	0	0	0	0	507	512	
0	0	0	0	0	504	510	
1	0	0	0	0	494	511	
2	0	0	0	0	501	516	
3	0	0	0	0	502	519	
4	0	0	0	0	504	517	
5	0	0	0	0	506	515	
6	0	0	0	0	504	511	
7	0	0	0	0	507	510	
8	0	0	0	0	507	508	
9	0	0	0	0	508	509	
10	0	0	0	0	507	510	
11	0	0	0	0	505	510	
12	0	0	0	0	507	509	
13	0	0	0	0	505	508	
14	0	0	0	0	503	516	
15	0	0	0	0	506	514	
0	0	0	0	0	504	512	
1	0	0	0	0	508	511	
2	0	0	0	0	506	510	
3	0	0	0	0	507	511	
4	0	0	0	0	505	512	
5	0	0	0	0	505	511	
6	0	0	0	0	509	512	
7	0	0	0	0	506	513	
8	0	0	0	0	507	511	
9	0	0	0	0	507	512	
10	0	0	0	0	505	513	
11	0	0	0	0	506	513	
12	0	0	0	0	504	512	
13	0	0	0	0	505	511	
14	0	0	0	0	507	511	
15	0	0	0	0	506	510	
0	0	0	0	0	504	511	
1	0	0	0	0	503	511	
2	0	0	0	0	506	511	
3	0	0	0	0	505	512	
4	0	0	0	0	504	512	
5	0	0	0	0	508	511	
6	0	0	0	0	507	511	
7	0	0	0	0	505	513	
8	0	0	0	0	505	511	
9	0	0	0	0	505	511	
10	0	0	0	0	500	511	
11	0	0	0	0	501	513	
12	0	0	0	0	505	515	
13	0	0	0	0	507	516	
14	0	0	0	0	509	513	
15	0	0	0	0	508	513	
0	0	0	0	0	506	512	
1	0	0	0	0	505	511	
2	0	0	0	0	507	512	
3	0	0	0	0	503	511	
4	0	0	0	0	504	513	
5	0	0	0	0	504	512	
6	0	0	0	0	503	511	
7	0	0	0	0	499	511	
8	0	0	0	0	503	510	
9	0	0	0	0	507	510	
10	0	0	0	0	506	512	
11	0	0	0	0	507	513	
12	0	0	0	0	505	512	
13	0	0	0	0	504	512	
14	0	0	0	0	507	513	
15	0	0	0	0	508	513	
0	0	0	0	0	507	516	
1	0	0	0	0	508	513	
2	0	0	0	0	508	511	
3	0	0	0	0	507	510	
4	0	0	0	0	504	512	
5	0	0	0	0	505	511	
6	0	0	0	0	504	512	
7	0	0	0	0	501	512	
8	0	0	0	0	502	512	
9	0	0	0	0	508	510	
10	0	0	0	0	504	512	
11	0	0	0	0	507	513	
12	0	0	0	0	508	513	
13	0	0	0	0	508	513	
14	0	0	0	0	504	510	
15	0	0	0	0	504	512	
0	0	0	0	0	503	513	
1	0	0	0	0	503	514	
2	0	0	0	0	501	512	
3	0	0	0	0	505	513	
4	0	0	0	0	509	515	
5	0	0	0	0	509	514	
6	0	0	0	0	508	511	
7	0	0	0	0	507	508	
8	0	0	0	0	506	509	
9	0	0	0	0	506	510	
10	0	0	0	0	504	508	
11	0	0	0	0	505	511	
12	0	0	0	0	508	512	
13	0	0	0	0	508	515	
14	0	0	0	0	508	515	
15	0	0	0	0	506	512	
0	0	0	0	0	506	513	
1	0	0	0	0	505	512	
2	0	0	0	0	504	507	
3	0	0	0	0	505	510	
4	0	0	0	0	501	512	
5	0	0	0	0	503	513	
6	0	0	0	0	507	513	
7	0	0	0	0	510	512	
8	0	0	0	0	509	513	
9	0	0	0	0	509	512	
10	0	0	0	0	501	512	
11	0	0	0	0	499	512	
12	0	0	0	0	505	510	
13	0	0	0	0	506	512	
14	0	0	0	0	507	511	
15	0	0	0	0	505	513	
0	0	0	0	0	500	510	
1	0	0	0	0	505	510	
2	0	0	0	0	509	511	
3	0	0	0	0	508	512	
4	0	0	0	0	505	514	
5	0	0	0	0	499	512	
6	0	0	0	0	500	512	
7	0	0	0	0	504	512	
8	0	0	0	0	507	512	
9	0	0	0	0	507	511	
10	0	0	0	0	508	512	
11	0	0	0	0	506	511	
12	0	0	0	0	506	512	
13	0	0	0	0	506	508	
14	0	0	0	0	507	509	
15	0	0	0	0	507	510	
0	0	0	0	0	506	510	
1	0	0	0	0	507	511	
2	0	0	0	0	505	513	
3	0	0	0	0	508	511	
4	0	0	0	0	508	510	
5	0	0	0	0	509	511	
6	0	0	0	0	505	515	
7	0	0	0	0	505	514	
8	0	0	0	0	504	517	
9	0	0	0	0	503	515	
10	0	0	0	0	506	511	
11	0	0	0	0	506	508	
12	0	0	0	0	504	508	
13	0	0	0	0	505	508	
14	0	0	0	0	505	509	
15	0	0	0	0	505	513	
0	0	0	0	0	504	513	
1	0	0	0	0	507	518	
2	0	0	0	0	506	519	
3	0	0	0	0	505	516	
4	0	0	0	0	507	516	
5	0	0	0	0	505	511	
6	0	0	0	0	504	508	
7	0	0	0	0	506	510	
8	0	0	0	0	506	511	
9	0	0	0	0	507	511	
10	0	0	0	0	501	511	
11	0	0	0	0	502	509	
12	0	0	0	0	507	510	
13	0	0	0	0	509	508	
14	0	0	0	0	507	505	
15	0	0	0	0	508	511	
0	0	0	0	0	506	518	
1	0	0	0	0	507	518	
2	0	0	0	0	505	519	
3	0	0	0	0	506	516	
4	0	0	0	0	502	510	
5	0	0	0	0	494	505	
6	0	0	0	0	500	504	
7	0	0	0	0	506	508	
8	0	0	0	0	506	509	
9	0	0	0	0	507	514	
10	0	0	0	0	505	516	
11	0	0	0	0	505	515	
12	0	0	0	0	504	516	
13	0	0	0	0	505	510	
14	0	0	0	0	507	511	
15	0	0	0	0	508	511	
0	0	0	0	0	507	509	
1	0	0	0	0	508	511	
2	0	0	0	0	505	513	
3	0	0	0	0	509	512	
4	0	0	0	0	503	509	
5	0	0	0	0	504	508	
6	0	0	0	0	504	509	
7	0	0	0	0	505	510	
8	0	0	0	0	506	513	
9	0	0	0	0	505	514	
10	0	0	0	0	505	514	
11	0	0	0	0	508	515	
12	0	0	0	0	507	513	
13	0	0	0	0	510	512	
14	0	0	0	0	509	518	
15	0	0	0	0	505	517	
0	0	0	0	0	505	513	
1	0	0	0	0	503	509	
2	0	0	0	0	505	509	
3	0	0	0	0	504	509	
4	0	0	0	0	503	513	
5	0	0	0	0	504	511	
6	0	0	0	0	506	514	
7	0	0	0	0	504	514	
8	0	0	0	0	504	513	
9	0	0	0	0	502	515	
10	0	0	0	0	502	511	
11	0	0	0	0	503	511	
12	0	0	0	0	505	509	
13	0	0	0	0	510	508	
14	0	0	0	0	510	508	
15	0	0	0	0	508	509	
0	0	0	0	0	504	515	
1	0	0	0	0	508	512	
2	0	0	0	0	507	511	
3	0	0	0	0	507	509	
4	0	0	0	0	508	508	
5	0	0	0	0	510	511	
6	0	0	0	0	502	513	
7	0	0	0	0	499	516	
8	0	0	0	0	503	512	
9	0	0	0	0	503	510	
10	0	0	0	0	507	508	
11	0	0	0	0	506	511	
12	0	0	0	0	505	512	
13	0	0	0	0	504	510	
14	0	0	0	0	505	510	
15	0	0	0	0	510	513	
0	0	0	0	0	510	517	
1	0	0	0	0	508	515	
2	0	0	0	0	504	514	
3	0	0	0	0	498	510	
4	0	0	0	0	499	511	
5	0	0	0	0	504	515	
6	0	0	0	0	504	514	
7	0	0	0	0	503	512	
8	0	0	0	0	502	510	
9	0	0	0	0	502	515	
10	0	0	0	0	507	512	
11	0	0	0	0	509	511	
12	0	0	0	0	507	509	
13	0	0	0	0	505	510	
14	0	0	0	0	505	509	
15	0	0	0	0	508	509	
0	0	0	0	0	508	510	
1	0	0	0	0	505	509	
2	0	0	0	0	504	508	
3	0	0	0	0	505	511	
4	0	0	0	0	507	513	
5	0	0	0	0	507	519	
6	0	0	0	0	507	519	
7	0	0	0	0	506	516	
8	0	0	0	0	508	512	
9	0	0	0	0	505	511	
10	0	0	0	0	506	512	
11	0	0	0	0	505	510	
12	0	0	0	0	505	508	
13	0	0	0	0	504	508	
14	0	0	0	0	502	510	
15	0	0	0	0	499	511	
0	0	0	0	0	502	514	
1	0	0	0	0	501	518	
2	0	0	0	0	505	516	
3	0	0	0	0	507	514	
4	0	0	0	0	510	512	
5	0	0	0	0	509	512	
6	0	0	0	0	506	509	
7	0	0	0	0	506	507	
8	0	0	0	0	505	507	
9	0	0	0	0	504	508	
10	0	0	0	0	505	509	
11	0	0	0	0	504	508	
12	0	0	0	0	503	509	
13	0	0	0	0	505	510	
14	0	0	0	0	506	514	
15	0	0	0	0	506	515	
0	0	0	0	0	508	518	
1	0	0	0	0	510	517	
2	0	0	0	0	505	513	
3	0	0	0	0	506	512	
4	0	0	0	0	508	519	
5	0	0	0	0	506	515	
6	0	0	0	0	504	510	
7	0	0	0	0	505	509	
8	0	0	0	0	505	512	
9	0	0	0	0	507	507	
10	0	0	0	0	508	508	
11	0	0	0	0	507	509	
12	0	0	0	0	505	512	
13	0	0	0	0	504	514	
14	0	0	0	0	505	512	
15	0	0	0	0	505	512	
0	0	0	0	0	505	512	
1	0	0	0	0	505	513	
2	0	0	0	0	505	510	
3	0	0	0	0	504	511	
4	0	0	0	0	504	510	
5	0	0	0	0	507	508	
6	0	0	0	0	505	509	
7	0	0	0	0	503	510	
8	0	0	0	0	504	510	
9	0	0	0	0	505	509	
10	0	0	0	0	504	511	
11	0	0	0	0	508	511	
12	0	0	0	0	508	512	
13	0	0	0	0	507	515	
14	0	0	0	0	504	520	
15	0	0	0	0	504	519	
0	0	0	0	0	505	515	
1	0	0	0	0	507	512	
2	0	0	0	0	505	510	
3	0	0	0	0	507	508	
4	0	0	0	0	508	509	
5	0	0	0	0	510	514	
6	0	0	0	0	502	515	
7	0	0	0	0	502	512	
8	0	0	0	0	502	514	
9	0	0	0	0	506	509	
10	0	0	0	0	504	511	
11	0	0	0	0	503	510	
12	0	0	0	0	504	511	
13	0	0	0	0	506	511	
14	0	0	0	0	504	512	
15	0	0	0	0	506	511	
0	0	0	0	0	506	511	
1	0	0	0	0	507	511	
2	0	0	0	0	503	511	
3	0	0	0	0	500	512	
4	0	0	0	0	506	511	
5	0	0	0	0	508	513	
6	0	0	0	0	508	511	
7	0	0	0	0	507	512	
8	0	0	0	0	507	511	
9	0	0	0	0	510	510	
10	0	0	0	0	509	511	
11	0	0	0	0	507	511	
12	0	0	0	0	503	512	
13	0	0	0	0	498	513	
14	0	0	0	0	503	511	
15	0	0	0	0	506	511	
0	0	0	0	0	508	512	
1	0	0	0	0	503	510	
2	0	0	0	0	501	511	
3	0	0	0	0	503	512	
4	0	0	0	0	504	510	
5	0	0	0	0	504	513	
6	0	0	0	0	504	516	
7	0	0	0	0	508	515	
8	0	0	0	0	510	512	
9	0	0	0	0	509	512	
10	0	0	0	0	507	511	
11	0	0	0	0	505	509	
12	0	0	0	0	505	514	
13	0	0	0	0	508	513	
14	0	0	0	0	508	514	
15	0	0	0	0	502	512	
0	0	0	0	0	500	511	
1	0	0	0	0	505	510	
2	0	0	0	0	506	510	
3	0	0	0	0	505	511	
4	0	0	0	0	505	508	
5	0	0	0	0	505	510	
6	0	0	0	0	504	511	
7	0	0	0	0	504	510	
8	0	0	0	0	507	513	
9	0	0	0	0	507	515	
10	0	0	0	0	504	510	
11	0	0	0	0	504	512	
12	0	0	0	0	503	508	
13	0	0	0	0	505	507	
14	0	0	0	0	507	512	
15	0	0	0	0	504	514	
0	0	0	0	0	507	510	
1	0	0	0	0	509	512	
2	0	0	0	0	506	508	
3	0	0	0	0	505	508	
4	0	0	0	0	505	509	
5	0	0	0	0	506	518	
6	0	0	0	0	508	520	
7	0	0	0	0	508	517	
8	0	0	0	0	506	515	
9	0	0	0	0	504	514	
10	0	0	0	0	502	510	
11	0	0	0	0	504	509	
12	0	0	0	0	504	519	
13	0	0	0	0	503	521	
14	0	0	0	0	504	518	
15	0	0	0	0	505	516	
0	0	0	0	0	505	515	
1	0	0	0	0	504	515	
2	0	0	0	0	505	510	
3	0	0	0	0	504	508	
4	0	0	0	0	504	508	
5	0	0	0	0	504	508	
6	0	0	0	0	506	504	
7	0	0	0	0	506	507	
8	0	0	0	0	504	508	
9	0	0	0	0	506	509	
10	0	0	0	0	507	510	
11	0	0	0	0	507	508	
12	0	0	0	0	507	507	
13	0	0	0	0	506	508	
14	0	0	0	0	503	510	
15	0	0	0	0	504	513	
0	0	0	0	0	505	513	
1	0	0	0	0	510	510	
2	0	0	0	0	508	511	
3	0	0	0	0	506	513	
4	0	0	0	0	507	517	
5	0	0	0	0	502	515	
6	0	0	0	0	508	514	
7	0	0	0	0	507	511	
8	0	0	0	0	505	513	
9	0	0	0	0	505	512	
10	0	0	0	0	504	511	
11	0	0	0	0	507	509	
12	0	0	0	0	507	509	
13	0	0	0	0	504	510	
14	0	0	0	0	503	513	
15	0	0	0	0	504	512	
0	0	0	0	0	506	510	
1	0	0	0	0	503	514	
2	0	0	0	0	502	513	
3	0	0	0	0	503	511	
4	0	0	0	0	506	508	
5	0	0	0	0	509	509	
6	0	0	0	0	504	509	
7	0	0	0	0	501	510	
8	0	0	0	0	509	512	
9	0	0	0	0	512	515	
10	0	0	0	0	511	512	
11	0	0	0	0	512	512	
12	0	0	0	0	509	508	
13	0	0	0	0	500	508	
14	0	0	0	0	500	510	
15	0	0	0	0	500	512	
0	0	0	0	0	503	512	
1	0	0	0	0	506	511	
2	0	0	0	0	500	513	
3	0	0	0	0	504	511	
4	0	0	0	0	506	513	
5	0	0	0	0	506	518	
6	0	0	0	0	507	521	
7	0	0	0	0	508	522	
8	0	0	0	0	507	513	
9	0	0	0	0	508	510	
10	0	0	0	0	508	510	
11	0	0	0	0	504	510	
12	0	0	0	0	501	508	
13	0	0	0	0	497	512	
14	0	0	0	0	504	514	
15	0	0	0	0	506	513	
0	0	0	0	0	507	511	
1	0	0	0	0	511	510	
2	0	0	0	0	509	508	
3	0	0	0	0	506	512	
4	0	0	0	0	508	512	
5	0	0	0	0	506	518	
6	0	0	0	0	505	516	
7	0	0	0	0	502	513	
8	0	0	0	0	500	511	
9	0	0	0	0	504	509	
10	0	0	0	0	506	510	
11	0	0	0	0	507	508	
12	0	0	0	0	506	508	
13	0	0	0	0	508	508	
14	0	0	0	0	504	507	
15	0	0	0	0	502	508	
0	0	0	0	0	504	512	
1	0	0	0	0	504	515	
2	0	0	0	0	504	514	
3	0	0	0	0	510	516	
4	0	0	0	0	510	514	
5	0	0	0	0	511	513	
6	0	0	0	0	510	510	
7	0	0	0	0	508	514	
8	0	0	0	0	505	517	
9	0	0	0	0	505	515	
10	0	0	0	0	503	513	
11	0	0	0	0	498	515	
12	0	0	0	0	489	512	
13	0	0	0	0	498	510	
14	0	0	0	0	507	511	
15	0	0	0	0	508	510	
0	0	0	0	0	508	512	
1	0	0	0	0	508	509	
2	0	0	0	0	508	510	
3	0	0	0	0	508	512	
4	0	0	0	0	506	512	
5	0	0	0	0	506	512	
6	0	0	0	0	507	514	
7	0	0	0	0	507	511	
8	0	0	0	0	507	511	
9	0	0	0	0	506	511	
10	0	0	0	0	505	511	
11	0	0	0	0	504	512	
12	0	0	0	0	505	513	
13	0	0	0	0	505	511	
14	0	0	0	0	504	511	
15	0	0	0	0	504	509	
0	0	0	0	0	509	510	
1	0	0	0	0	510	513	
2	0	0	0	0	506	512	
3	0	0	0	0	506	515	
4	0	0	0	0	505	511	
5	0	0	0	0	502	513	
6	0	0	0	0	504	511	
7	0	0	0	0	506	511	
8	0	0	0	0	507	511	
9	0	0	0	0	505	512	
10	0	0	0	0	505	514	
11	0	0	0	0	505	511	
12	0	0	0	0	506	515	
13	0	0	0	0	504	510	
14	0	0	0	0	507	511	
15	0	0	0	0	505	512	
0	0	0	0	0	503	513	
1	0	0	0	0	506	510	
2	0	0	0	0	504	513	
3	0	0	0	0	510	516	
4	0	0	0	0	510	519	
5	0	0	0	0	504	515	
6	0	0	0	0	507	515	
7	0	0	0	0	503	511	
8	0	0	0	0	503	508	
9	0	0	0	0	503	511	
10	0	0	0	0	504	514	
11	0	0	0	0	504	512	
12	0	0	0	0	505	512	
13	0	0	0	0	505	508	
14	0	0	0	0	504	507	
15	0	0	0	0	505	510	
0	0	0	0	0	506	509	
1	0	0	0	0	506	513	
2	0	0	0	0	507	513	
3	0	0	0	0	506	508	
4	0	0	0	0	508	509	
5	0	0	0	0	507	513	
6	0	0	0	0	506	511	
7	0	0	0	0	505	512	
8	0	0	0	0	505	511	
9	0	0	0	0	504	515	
10	0	0	0	0	505	513	
11	0	0	0	0	506	510	
12	0	0	0	0	504	511	
13	0	0	0	0	507	512	
14	0	0	0	0	508	513	
15	0	0	0	0	501	513	
0	0	0	0	0	504	510	
1	0	0	0	0	511	511	
2	0	0	0	0	510	512	
3	0	0	0	0	499	511	
4	0	0	0	0	497	513	
5	0	0	0	0	503	512	
6	0	0	0	0	506	511	
7	0	0	0	0	507	511	
8	0	0	0	0	506	510	
9	0	0	0	0	508	509	
10	0	0	0	0	508	508	
11	0	0	0	0	504	510	
12	0	0	0	0	501	510	
13	0	0	0	0	498	508	
14	0	0	0	0	501	512	
15	0	0	0	0	504	515	
0	0	0	0	0	507	512	
1	0	0	0	0	506	519	
2	0	0	0	0	506	521	
3	0	0	0	0	507	522	
4	0	0	0	0	507	516	
5	0	0	0	0	506	511	
6	0	0	0	0	507	509	
7	0	0	0	0	506	509	
8	0	0	0	0	505	510	
9	0	0	0	0	508	510	
10	0	0	0	0	509	511	
11	0	0	0	0	508	511	
12	0	0	0	0	507	508	
13	0	0	0	0	506	508	
14	0	0	0	0	507	508	
15	0	0	0	0	507	511	
0	0	0	0	0	506	510	
1	0	0	0	0	505	512	
2	0	0	0	0	509	512	
3	0	0	0	0	505	514	
4	0	0	0	0	498	519	
5	0	0	0	0	499	516	
6	0	0	0	0	504	513	
7	0	0	0	0	510	512	
8	0	0	0	0	510	512	
9	0	0	0	0	508	511	
10	0	0	0	0	508	510	
11	0	0	0	0	508	514	
12	0	0	0	0	505	511	
13	0	0	0	0	505	511	
14	0	0	0	0	495	511	
15	0	0	0	0	493	510	
0	0	0	0	0	499	512	
1	0	0	0	0	505	511	
2	0	0	0	0	505	511	
3	0	0	0	0	505	510	
4	0	0	0	0	510	511	
5	0	0	0	0	509	511	
6	0	0	0	0	508	513	
7	0	0	0	0	507	512	
8	0	0	0	0	508	511	
9	0	0	0	0	506	511	
10	0	0	0	0	505	510	
11	0	0	0	0	504	508	
12	0	0	0	0	504	512	
13	0	0	0	0	505	511	
14	0	0	0	0	507	511	
15	0	0	0	0	507	510	
0	0	0	0	0	507	512	
1	0	0	0	0	507	511	
2	0	0	0	0	510	514	
3	0	0	0	0	509	520	
4	0	0	0	0	506	513	
5	0	0	0	0	505	514	
6	0	0	0	0	503	515	
7	0	0	0	0	504	520	
8	0	0	0	0	504	526	
9	0	0	0	0	504	516	
10	0	0	0	0	502	510	
11	0	0	0	0	503	508	
12	0	0	0	0	508	507	
13	0	0	0	0	510	508	
14	0	0	0	0	508	509	
15	0	0	0	0	506	510	
0	0	0	0	0	506	514	
1	0	0	0	0	507	514	
2	0	0	0	0	504	512	
3	0	0	0	0	504	510	
4	0	0	0	0	504	509	
5	0	0	0	0	505	509	
6	0	0	0	0	505	510	
7	0	0	0	0	504	511	
8	0	0	0	0	504	512	
9	0	0	0	0	504	510	
10	0	0	0	0	505	510	
11	0	0	0	0	506	509	
12	0	0	0	0	505	511	
13	0	0	0	0	504	513	
14	0	0	0	0	504	511	
15	0	0	0	0	505	510	
0	0	0	0	0	506	509	
1	0	0	0	0	506	512	
2	0	0	0	0	507	512	
3	0	0	0	0	508	515	
4	0	0	0	0	506	513	
5	0	0	0	0	505	513	
6	0	0	0	0	507	512	
7	0	0	0	0	510	511	
8	0	0	0	0	508	510	
9	0	0	0	0	509	507	
10	0	0	0	0	507	508	
11	0	0	0	0	500	510	
12	0	0	0	0	501	513	
13	0	0	0	0	501	516	
14	0	0	0	0	504	514	
15	0	0	0	0	504	513	
0	0	0	0	0	499	513	
1	0	0	0	0	496	509	
2	0	0	0	0	504	512	
3	0	0	0	0	505	510	
4	0	0	0	0	509	510	
5	0	0	0	0	507	510	
6	0	0	0	0	508	515	
7	0	0	0	0	507	512	
8	0	0	0	0	506	514	
9	0	0	0	0	505	512	
10	0	0	0	0	510	518	
11	0	0	0	0	509	516	
12	0	0	0	0	507	514	
13	0	0	0	0	505	511	
14	0	0	0	0	505	508	
15	0	0	0	0	505	509	
0	0	0	0	0	505	510	
1	0	0	0	0	507	510	
2	0	0	0	0	505	513	
3	0	0	0	0	507	513	
4	0	0	0	0	504	508	
5	0	0	0	0	506	509	
6	0	0	0	0	508	508	
7	0	0	0	0	508	504	
8	0	0	0	0	502	504	
9	0	0	0	0	500	505	
10	0	0	0	0	506	511	
11	0	0	0	0	506	510	
12	0	0	0	0	504	513	
13	0	0	0	0	506	519	
14	0	0	0	0	505	524	
15	0	0	0	0	506	524	
0	0	0	0	0	504	513	
1	0	0	0	0	501	513	
2	0	0	0	0	504	520	
3	0	0	0	0	504	515	
4	0	0	0	0	506	511	
5	0	0	0	0	505	507	
6	0	0	0	0	505	509	
7	0	0	0	0	505	508	
8	0	0	0	0	506	508	
9	0	0	0	0	505	511	
10	0	0	0	0	504	510	
11	0	0	0	0	507	513	
12	0	0	0	0	507	512	
13	0	0	0	0	508	510	
14	0	0	0	0	504	508	
15	0	0	0	0	505	511	
0	0	0	0	0	506	510	
1	0	0	0	0	506	511	
2	0	0	0	0	508	511	
3	0	0	0	0	505	508	
4	0	0	0	0	504	508	
5	0	0	0	0	504	510	
6	0	0	0	0	504	509	
7	0	0	0	0	503	510	
8	0	0	0	0	505	516	
9	0	0	0	0	504	517	
10	0	0	0	0	508	515	
11	0	0	0	0	507	516	
12	0	0	0	0	505	515	
13	0	0	0	0	505	513	
14	0	0	0	0	505	511	
15	0	0	0	0	507	507	
0	0	0	0	0	507	508	
1	0	0	0	0	508	519	
2	0	0	0	0	506	517	
3	0	0	0	0	505	515	
4	0	0	0	0	504	514	
5	0	0	0	0	506	511	
6	0	0	0	0	503	510	
7	0	0	0	0	504	513	
8	0	0	0	0	507	514	
9	0	0	0	0	507	512	
10	0	0	0	0	506	511	
11	0	0	0	0	504	511	
12	0	0	0	0	504	511	
13	0	0	0	0	502	511	
14	0	0	0	0	504	509	
15	0	0	0	0	504	511	
0	0	0	0	0	505	508	
1	0	0	0	0	509	510	
2	0	0	0	0	510	511	
3	0	0	0	0	509	510	
4	0	0	0	0	508	513	
5	0	0	0	0	504	516	
6	0	0	0	0	504	514	
7	0	0	0	0	498	509	
8	0	0	0	0	496	507	
9	0	0	0	0	505	509	
10	0	0	0	0	508	514	
11	0	0	0	0	507	515	
12	0	0	0	0	505	513	
13	0	0	0	0	505	511	
14	0	0	0	0	510	511	
15	0	0	0	0	508	510	
0	0	0	0	0	504	511	
1	0	0	0	0	499	511	
2	0	0	0	0	503	513	
3	0	0	0	0	507	513	
4	0	0	0	0	507	512	
5	0	0	0	0	506	511	
6	0	0	0	0	507	512	
7	0	0	0	0	508	511	
8	0	0	0	0	506	512	
9	0	0	0	0	507	513	
10	0	0	0	0	505	513	
11	0	0	0	0	502	510	
12	0	0	0	0	507	510	
13	0	0	0	0	502	509	
14	0	0	0	0	502	511	
15	0	0	0	0	506	514	
0	0	0	0	0	507	513	
1	0	0	0	0	507	514	
2	0	0	0	0	504	513	
3	0	0	0	0	506	516	
4	0	0	0	0	506	516	
5	0	0	0	0	508	512	
6	0	0	0	0	505	512	
7	0	0	0	0	503	509	
8	0	0	0	0	507	509	
9	0	0	0	0	506	509	
10	0	0	0	0	507	509	
11	0	0	0	0	511	511	
12	0	0	0	0	503	508	
13	0	0	0	0	504	508	
14	0	0	0	0	504	507	
15	0	0	0	0	506	508	
0	0	0	0	0	506	513	
1	0	0	0	0	505	516	
2	0	0	0	0	508	517	
3	0	0	0	0	505	516	
4	0	0	0	0	505	516	
5	0	0	0	0	505	520	
6	0	0	0	0	506	516	
7	0	0	0	0	506	510	
8	0	0	0	0	503	511	
9	0	0	0	0	502	512	
10	0	0	0	0	504	516	
11	0	0	0	0	504	512	
12	0	0	0	0	505	513	
13	0	0	0	0	506	511	
14	0	0	0	0	504	509	
15	0	0	0	0	506	509	
0	0	0	0	0	510	510	
1	0	0	0	0	510	509	
2	0	0	0	0	505	511	
3	0	0	0	0	504	510	
4	0	0	0	0	504	508	
5	0	0	0	0	503	507	
6	0	0	0	0	504	511	
7	0	0	0	0	500	514	
8	0	0	0	0	502	512	
9	0	0	0	0	505	513	
10	0	0	0	0	505	509	
11	0	0	0	0	509	514	
12	0	0	0	0	506	513	
13	0	0	0	0	504	512	
14	0	0	0	0	508	508	
15	0	0	0	0	507	506	
0	0	0	0	0	508	511	
1	0	0	0	0	508	513	
2	0	0	0	0	505	518	
3	0	0	0	0	506	518	
4	0	0	0	0	507	521	
5	0	0	0	0	506	517	
6	0	0	0	0	506	513	
7	0	0	0	0	500	511	
8	0	0	0	0	501	509	
9	0	0	0	0	505	507	
10	0	0	0	0	506	505	
11	0	0	0	0	507	509	
12	0	0	0	0	508	511	
13	0	0	0	0	504	508	
14	0	0	0	0	503	513	
15	0	0	0	0	505	524	
0	0	0	0	0	504	528	
1	0	0	0	0	505	525	
2	0	0	0	0	505	513	
3	0	0	0	0	505	509	
4	0	0	0	0	505	508	
5	0	0	0	0	504	505	
6	0	0	0	0	502	508	
7	0	0	0	0	505	508	
8	0	0	0	0	506	508	
9	0	0	0	0	507	510	
10	0	0	0	0	506	510	
11	0	0	0	0	507	511	
12	0	0	0	0	507	511	
13	0	0	0	0	507	512	
14	0	0	0	0	508	509	
15	0	0	0	0	509	508	
0	0	0	0	0	511	510	
1	0	0	0	0	513	515	
2	0	0	0	0	510	513	
3	0	0	0	0	509	511	
4	0	0	0	0	500	512	
5	0	0	0	0	499	511	
6	0	0	0	0	503	511	
7	0	0	0	0	503	513	
8	0	0	0	0	504	516	
9	0	0	0	0	508	517	
10	0	0	0	0	504	513	
11	0	0	0	0	500	516	
12	0	0	0	0	503	516	
13	0	0	0	0	504	509	
14	0	0	0	0	504	511	
15	0	0	0	0	505	509	
0	0	0	0	0	506	510	
1	0	0	0	0	506	511	
2	0	0	0	0	505	511	
3	0	0	0	0	500	510	
4	0	0	0	0	502	511	
5	0	0	0	0	506	509	
6	0	0	0	0	504	510	
7	0	0	0	0	505	511	
8	0	0	0	0	508	508	
9	0	0	0	0	507	508	
10	0	0	0	0	506	507	
11	0	0	0	0	508	512	
12	0	0	0	0	510	513	
13	0	0	0	0	507	514	
14	0	0	0	0	502	518	
15	0	0	0	0	501	513	
0	0	0	0	0	501	513	
1	0	0	0	0	504	513	
2	0	0	0	0	507	511	
3	0	0	0	0	505	510	
4	0	0	0	0	506	515	
5	0	0	0	0	507	517	
6	0	0	0	0	506	514	
7	0	0	0	0	507	511	
8	0	0	0	0	507	513	
9	0	0	0	0	506	515	
10	0	0	0	0	505	511	
11	0	0	0	0	506	510	
12	0	0	0	0	506	511	
13	0	0	0	0	505	508	
14	0	0	0	0	505	508	
15	0	0	0	0	504	511	
0	0	0	0	0	505	513	
1	0	0	0	0	507	510	
2	0	0	0	0	507	508	
3	0	0	0	0	506	512	
4	0	0	0	0	506	513	
5	0	0	0	0	505	515	
6	0	0	0	0	507	513	
7	0	0	0	0	505	513	
8	0	0	0	0	504	510	
9	0	0	0	0	507	510	
10	0	0	0	0	505	510	
11	0	0	0	0	505	510	
12	0	0	0	0	504	510	
13	0	0	0	0	508	512	
14	0	0	0	0	505	510	
15	0	0	0	0	505	511	
0	0	0	0	0	507	511	
1	0	0	0	0	505	512	
2	0	0	0	0	505	510	
3	0	0	0	0	504	509	
4	0	0	0	0	503	511	
5	0	0	0	0	499	514	
6	0	0	0	0	497	514	
7	0	0	0	0	504	517	
8	0	0	0	0	507	515	
9	0	0	0	0	509	512	
10	0	0	0	0	510	513	
11	0	0	0	0	510	512	
12	0	0	0	0	511	511	
13	0	0	0	0	508	513	
14	0	0	0	0	504	512	
15	0	0	0	0	506	511	
0	0	0	0	0	504	511	
1	0	0	0	0	507	509	
2	0	0	0	0	504	512	
3	0	0	0	0	503	512	
4	0	0	0	0	500	512	
5	0	0	0	0	500	510	
6	0	0	0	0	507	510	
7	0	0	0	0	508	510	
8	0	0	0	0	506	511	
9	0	0	0	0	505	510	
10	0	0	0	0	504	513	
11	0	0	0	0	504	516	
12	0	0	0	0	505	514	
13	0	0	0	0	507	512	
14	0	0	0	0	506	511	
15	0	0	0	0	506	510	
0	0	0	0	0	504	513	
1	0	0	0	0	504	515	
2	0	0	0	0	504	512	
3	0	0	0	0	508	513	
4	0	0	0	0	507	510	
5	0	0	0	0	504	508	
6	0	0	0	0	504	515	
7	0	0	0	0	504	521	
8	0	0	0	0	507	516	
9	0	0	0	0	508	512	
10	0	0	0	0	511	511	
11	0	0	0	0	510	515	
12	0	0	0	0	508	508	
13	0	0	0	0	499	514	
14	0	0	0	0	497	515	
15	0	0	0	0	498	515	
0	0	0	0	0	506	515	
1	0	0	0	0	507	512	
2	0	0	0	0	508	511	
3	0	0	0	0	505	510	
4	0	0	0	0	505	510	
5	0	0	0	0	504	509	
6	0	0	0	0	504	507	
7	0	0	0	0	504	507	
8	0	0	0	0	509	510	
9	0	0	0	0	508	509	
10	0	0	0	0	505	510	
11	0	0	0	0	505	510	
12	0	0	0	0	506	512	
13	0	0	0	0	506	510	
14	0	0	0	0	507	513	
15	0	0	0	0	505	514	
0	0	0	0	0	505	516	
1	0	0	0	0	506	513	
2	0	0	0	0	506	513	
3	0	0	0	0	508	515	
4	0	0	0	0	507	516	
5	0	0	0	0	499	513	
6	0	0	0	0	499	510	
7	0	0	0	0	502	508	
8	0	0	0	0	505	512	
9	0	0	0	0	504	510	
10	0	0	0	0	507	510	
11	0	0	0	0	506	515	
12	0	0	0	0	508	516	
13	0	0	0	0	509	512	
14	0	0	0	0	508	508	
15	0	0	0	0	509	508	
0	0	0	0	0	512	508	
1	0	0	0	0	504	506	
2	0	0	0	0	498	510	
3	0	0	0	0	501	516	
4	0	0	0	0	504	517	
5	0	0	0	0	507	516	
6	0	0	0	0	507	515	
7	0	0	0	0	508	512	
8	0	0	0	0	507	512	
9	0	0	0	0	500	513	
10	0	0	0	0	503	511	
11	0	0	0	0	508	511	
12	0	0	0	0	508	510	
13	0	0	0	0	507	509	
14	0	0	0	0	506	509	
15	0	0	0	0	505	508	
0	0	0	0	0	504	508	
1	0	0	0	0	503	512	
2	0	0	0	0	505	512	
3	0	0	0	0	507	513	
4	0	0	0	0	505	511	
5	0	0	0	0	505	510	
6	0	0	0	0	506	512	
7	0	0	0	0	506	509	
8	0	0	0	0	505	510	
9	0	0	0	0	504	508	
10	0	0	0	0	505	508	
11	0	0	0	0	505	511	
12	0	0	0	0	505	516	
13	0	0	0	0	504	519	
14	0	0	0	0	507	516	
15	0	0	0	0	508	513	
0	0	0	0	0	508	513	
1	0	0	0	0	507	517	
2	0	0	0	0	508	513	
3	0	0	0	0	510	511	
4	0	0	0	0	509	509	
5	0	0	0	0	506	510	
6	0	0	0	0	505	507	
7	0	0	0	0	503	507	
8	0	0	0	0	503	509	
9	0	0	0	0	499	507	
10	0	0	0	0	500	508	
11	0	0	0	0	494	511	
12	0	0	0	0	498	512	
13	0	0	0	0	506	512	
14	0	0	0	0	507	511	
15	0	0	0	0	506	513	
0	0	0	0	0	508	515	
1	0	0	0	0	508	518	
2	0	0	0	0	508	519	
3	0	0	0	0	508	521	
4	0	0	0	0	506	523	
5	0	0	0	0	508	518	
6	0	0	0	0	505	514	
7	0	0	0	0	507	512	
8	0	0	0	0	505	507	
9	0	0	0	0	505	508	
10	0	0	0	0	506	510	
11	0	0	0	0	507	508	
12	0	0	0	0	505	511	
13	0	0	0	0	505	510	
14	0	0	0	0	506	512	
15	0	0	0	0	508	509	
0	0	0	0	0	508	507	
1	0	0	0	0	506	511	
2	0	0	0	0	508	515	
3	0	0	0	0	509	512	
4	0	0	0	0	502	511	
5	0	0	0	0	498	511	
6	0	0	0	0	496	511	
7	0	0	0	0	502	510	
8	0	0	0	0	507	513	
9	0	0	0	0	507	517	
10	0	0	0	0	508	514	
11	0	0	0	0	505	512	
12	0	0	0	0	507	513	
13	0	0	0	0	507	509	
14	0	0	0	0	508	511	
15	0	0	0	0	505	512	
0	0	0	0	0	505	513	
1	0	0	0	0	504	510	
2	0	0	0	0	505	510	
3	0	0	0	0	505	511	
4	0	0	0	0	505	512	
5	0	0	0	0	506	509	
6	0	0	0	0	504	509	
7	0	0	0	0	505	510	
8	0	0	0	0	503	510	
9	0	0	0	0	507	512	
10	0	0	0	0	508	512	
11	0	0	0	0	513	513	
12	0	0	0	0	512	514	
13	0	0	0	0	508	513	
14	0	0	0	0	510	512	
15	0	0	0	0	502	511	
0	0	0	0	0	498	511	
1	0	0	0	0	496	515	
2	0	0	0	0	499	514	
3	0	0	0	0	503	510	
4	0	0	0	0	504	512	
5	0	0	0	0	504	512	
6	0	0	0	0	509	511	
7	0	0	0	0	505	513	
8	0	0	0	0	504	511	
9	0	0	0	0	507	512	
10	0	0	0	0	506	511	
11	0	0	0	0	504	511	
12	0	0	0	0	505	510	
13	0	0	0	0	505	512	
14	0	0	0	0	507	513	
15	0	0	0	0	505	512	
0	0	0	0	0	505	513	
1	0	0	0	0	506	513	
2	0	0	0	0	504	513	
3	0	0	0	0	505	510	
4	0	0	0	0	508	511	
5	0	0	0	0	509	509	
6	0	0	0	0	511	511	
7	0	0	0	0	509	512	
8	0	0	0	0	510	512	
9	0	0	0	0	507	511	
10	0	0	0	0	505	513	
11	0	0	0	0	500	510	
12	0	0	0	0	502	510	
13	0	0	0	0	501	511	
14	0	0	0	0	497	512	
15	0	0	0	0	503	514	
0	0	0	0	0	504	511	
1	0	0	0	0	504	512	
2	0	0	0	0	506	511	
3	0	0	0	0	503	512	
4	0	0	0	0	506	510	
5	0	0	0	0	506	512	
6	0	0	0	0	507	513	
7	0	0	0	0	507	513	
8	0	0	0	0	504	512	
9	0	0	0	0	507	511	
10	0	0	0	0	505	513	
11	0	0	0	0	507	512	
12	0	0	0	0	507	512	
13	0	0	0	0	507	512	
14	0	0	0	0	509	514	
15	0	0	0	0	505	510	
0	0	0	0	0	505	511	
1	0	0	0	0	506	512	
2	0	0	0	0	508	511	
3	0	0	0	0	507	511	
4	0	0	0	0	508	511	
5	0	0	0	0	506	511	
6	0	0	0	0	507	512	
7	0	0	0	0	505	514	
8	0	0	0	0	501	510	
9	0	0	0	0	506	511	
10	0	0	0	0	504	511	
11	0	0	0	0	496	512	
12	0	0	0	0	499	511	
13	0	0	0	0	508	512	
14	0	0	0	0	509	510	
15	0	0	0	0	505	512	
0	0	0	0	0	509	511	
1	0	0	0	0	511	510	
2	0	0	0	0	510	510	
3	0	0	0	0	502	515	
4	0	0	0	0	498	515	
5	0	0	0	0	500	513	
6	0	0	0	0	504	512	
7	0	0	0	0	504	512	
8	0	0	0	0	505	510	
9	0	0	0	0	506	512	
10	0	0	0	0	508	511	
11	0	0	0	0	507	514	
12	0	0	0	0	505	512	
13	0	0	0	0	507	510	
14	0	0	0	0	507	509	
15	0	0	0	0	507	509	
0	0	0	0	0	504	512	
1	0	0	0	0	506	516	
2	0	0	0	0	506	517	
3	0	0	0	0	507	515	
4	0	0	0	0	506	511	
5	0	0	0	0	507	514	
6	0	0	0	0	508	510	
7	0	0	0	0	506	511	
8	0	0	0	0	505	515	
9	0	0	0	0	505	513	
10	0	0	0	0	504	513	
11	0	0	0	0	502	512	
12	0	0	0	0	504	512	
13	0	0	0	0	505	510	
14	0	0	0	0	508	508	
15	0	0	0	0	508	509	
0	0	0	0	0	512	515	
1	0	0	0	0	511	510	
2	0	0	0	0	510	506	
3	0	0	0	0	500	507	
4	0	0	0	0	499	510	
5	0	0	0	0	500	512	
6	0	0	0	0	498	509	
7	0	0	0	0	502	510	
8	0	0	0	0	506	513	
9	0	0	0	0	507	510	
10	0	0	0	0	507	511	
11	0	0	0	0	507	515	
12	0	0	0	0	506	518	
13	0	0	0	0	506	522	
14	0	0	0	0	508	519	
15	0	0	0	0	511	518	
0	0	0	0	0	508	519	
1	0	0	0	0	507	525	
2	0	0	0	0	505	520	
3	0	0	0	0	505	514	
4	0	0	0	0	504	510	
5	0	0	0	0	505	507	
6	0	0	0	0	505	510	
7	0	0	0	0	507	511	
8	0	0	0	0	503	508	
9	0	0	0	0	504	504	
10	0	0	0	0	504	510	
11	0	0	0	0	504	510	
12	0	0	0	0	504	508	
13	0	0	0	0	504	508	
14	0	0	0	0	505	508	
15	0	0	0	0	504	508	
0	0	0	0	0	504	510	
1	0	0	0	0	505	511	
2	0	0	0	0	505	510	
3	0	0	0	0	509	512	
4	0	0	0	0	506	514	
5	0	0	0	0	511	513	
6	0	0	0	0	508	510	
7	0	0	0	0	509	510	
8	0	0	0	0	506	511	
9	0	0	0	0	505	512	
10	0	0	0	0	505	512	
11	0	0	0	0	503	513	
12	0	0	0	0	504	513	
13	0	0	0	0	505	510	
14	0	0	0	0	507	508	
15	0	0	0	0	504	514	
0	0	0	0	0	500	513	
1	0	0	0	0	501	511	
2	0	0	0	0	504	511	
3	0	0	0	0	507	510	
4	0	0	0	0	507	510	
5	0	0	0	0	505	510	
6	0	0	0	0	504	511	
7	0	0	0	0	504	511	
8	0	0	0	0	505	512	
9	0	0	0	0	508	512	
10	0	0	0	0	506	510	
11	0	0	0	0	504	512	
12	0	0	0	0	505	511	
13	0	0	0	0	504	513	
14	0	0	0	0	508	513	
15	0	0	0	0	506	513	
0	0	0	0	0	505	519	
1	0	0	0	0	507	518	
2	0	0	0	0	508	515	
3	0	0	0	0	508	511	
4	0	0	0	0	504	510	
5	0	0	0	0	507	513	
6	0	0	0	0	506	512	
7	0	0	0	0	499	512	
8	0	0	0	0	507	512	
9	0	0	0	0	506	508	
10	0	0	0	0	501	510	
11	0	0	0	0	502	509	
12	0	0	0	0	503	510	
13	0	0	0	0	504	511	
14	0	0	0	0	505	511	
15	0	0	0	0	507	511	
0	0	0	0	0	504	511	
1	0	0	0	0	508	513	
2	0	0	0	0	506	515	
3	0	0	0	0	500	515	
4	0	0	0	0	503	514	
5	0	0	0	0	507	513	
6	0	0	0	0	507	513	
7	0	0	0	0	511	512	
8	0	0	0	0	509	508	
9	0	0	0	0	505	509	
10	0	0	0	0	504	511	
11	0	0	0	0	502	511	
12	0	0	0	0	504	512	
13	0	0	0	0	507	512	
14	0	0	0	0	508	512	
15	0	0	0	0	509	511	
0	0	0	0	0	508	511	
1	0	0	0	0	505	513	
2	0	0	0	0	504	512	
3	0	0	0	0	504	511	
4	0	0	0	0	504	513	
5	0	0	0	0	503	513	
6	0	0	0	0	508	514	
7	0	0	0	0	504	513	
8	0	0	0	0	503	514	
9	0	0	0	0	507	513	
10	0	0	0	0	509	510	
11	0	0	0	0	506	508	
12	0	0	0	0	506	510	
13	0	0	0	0	504	511	
14	0	0	0	0	505	514	
15	0	0	0	0	506	512	
0	0	0	0	0	505	513	
1	0	0	0	0	505	513	
2	0	0	0	0	507	515	
3	0	0	0	0	508	511	
4	0	0	0	0	506	512	
5	0	0	0	0	504	513	
6	0	0	0	0	505	511	
7	0	0	0	0	504	512	
8	0	0	0	0	504	510	
9	0	0	0	0	504	508	
10	0	0	0	0	505	511	
11	0	0	0	0	504	511	
12	0	0	0	0	504	513	
13	0	0	0	0	505	512	
14	0	0	0	0	506	511	
15	0	0	0	0	507	509	
0	0	0	0	0	505	511	
1	0	0	0	0	505	511	
2	0	0	0	0	504	512	
3	0	0	0	0	504	513	
4	0	0	0	0	502	512	
5	0	0	0	0	504	512	
6	0	0	0	0	503	512	
7	0	0	0	0	508	513	
8	0	0	0	0	508	513	
9	0	0	0	0	506	513	
10	0	0	0	0	508	511	
11	0	0	0	0	507	508	
12	0	0	0	0	501	512	
13	0	0	0	0	502	513	
14	0	0	0	0	511	512	
15	0	0	0	0	508	512	
0	0	0	0	0	507	512	
1	0	0	0	0	509	511	
2	0	0	0	0	506	513	
3	0	0	0	0	506	514	
4	0	0	0	0	504	513	
5	0	0	0	0	507	512	
6	0	0	0	0	506	511	
7	0	0	0	0	508	512	
8	0	0	0	0	508	510	
9	0	0	0	0	510	511	
10	0	0	0	0	508	513	
11	0	0	0	0	506	514	
12	0	0	0	0	505	512	
13	0	0	0	0	499	511	
14	0	0	0	0	492	510	
15	0	0	0	0	502	511	
0	0	0	0	0	513	510	
1	0	0	0	0	505	509	
2	0	0	0	0	496	510	
3	0	0	0	0	495	510	
4	0	0	0	0	502	511	
5	0	0	0	0	504	512	
6	0	0	0	0	502	512	
7	0	0	0	0	506	514	
8	0	0	0	0	509	516	
9	0	0	0	0	507	514	
10	0	0	0	0	507	512	
11	0	0	0	0	507	511	
12	0	0	0	0	508	510	
13	0	0	0	0	509	512	
14	0	0	0	0	508	510	
15	0	0	0	0	506	510	
0	0	0	0	0	508	508	
1	0	0	0	0	505	511	
2	0	0	0	0	505	509	
3	0	0	0	0	503	510	
4	0	0	0	0	499	513	
5	0	0	0	0	504	514	
6	0	0	0	0	504	514	
7	0	0	0	0	506	514	
8	0	0	0	0	506	516	
9	0	0	0	0	512	520	
10	0	0	0	0	516	520	
11	0	0	0	0	518	514	
12	0	0	0	0	518	506	
13	0	0	0	0	514	510	
14	0	0	0	0	513	511	
15	0	0	0	0	510	507	
0	0	0	0	0	500	508	
1	0	0	0	0	496	510	
2	0	0	0	0	499	510	
3	0	0	0	0	489	510	
4	0	0	0	0	488	510	
5	0	0	0	0	496	513	
6	0	0	0	0	504	513	
7	0	0	0	0	506	515	
8	0	0	0	0	505	514	
9	0	0	0	0	505	515	
10	0	0	0	0	504	516	
11	0	0	0	0	504	511	
12	0	0	0	0	504	508	
13	0	0	0	0	506	510	
14	0	0	0	0	507	511	
15	0	0	0	0	506	511	
0	0	0	0	0	507	507	
1	0	0	0	0	507	510	
2	0	0	0	0	504	510	
3	0	0	0	0	508	510	
4	0	0	0	0	508	512	
5	0	0	0	0	507	512	
6	0	0	0	0	506	511	
7	0	0	0	0	505	514	
8	0	0	0	0	505	514	
9	0	0	0	0	507	514	
10	0	0	0	0	508	512	
11	0	0	0	0	510	515	
12	0	0	0	0	507	514	
13	0	0	0	0	507	513	
14	0	0	0	0	506	511	
15	0	0	0	0	504	507	
0	0	0	0	0	504	507	
1	0	0	0	0	504	508	
2	0	0	0	0	502	510	
3	0	0	0	0	503	514	
4	0	0	0	0	506	515	
5	0	0	0	0	509	515	
6	0	0	0	0	505	511	
7	0	0	0	0	503	513	
8	0	0	0	0	505	513	
9	0	0	0	0	506	515	
10	0	0	0	0	504	515	
11	0	0	0	0	506	510	
12	0	0	0	0	507	509	
13	0	0	0	0	509	511	
14	0	0	0	0	504	511	
15	0	0	0	0	502	512	
0	0	0	0	0	513	514	
1	0	0	0	0	513	510	
2	0	0	0	0	512	510	
3	0	0	0	0	515	510	
4	0	0	0	0	502	507	
5	0	0	0	0	489	512	
6	0	0	0	0	496	514	
7	0	0	0	0	502	519	
8	0	0	0	0	498	518	
9	0	0	0	0	500	515	
10	0	0	0	0	504	511	
11	0	0	0	0	512	509	
12	0	0	0	0	500	504	
13	0	0	0	0	498	507	
14	0	0	0	0	504	515	
15	0	0	0	0	508	518	
0	0	0	0	0	509	517	
1	0	0	0	0	508	517	
2	0	0	0	0	509	513	
3	0	0	0	0	507	510	
4	0	0	0	0	507	509	
5	0	0	0	0	507	511	
6	0	0	0	0	507	514	
7	0	0	0	0	505	511	
8	0	0	0	0	504	508	
9	0	0	0	0	507	507	
10	0	0	0	0	504	505	
11	0	0	0	0	506	506	
12	0	0	0	0	504	510	
13	0	0	0	0	507	510	
14	0	0	0	0	504	515	
15	0	0	0	0	510	513	
0	0	0	0	0	512	510	
1	0	0	0	0	504	513	
2	0	0	0	0	504	515	
3	0	0	0	0	503	513	
4	0	0	0	0	506	515	
5	0	0	0	0	508	514	
6	0	0	0	0	510	511	
7	0	0	0	0	499	511	
8	0	0	0	0	508	510	
9	0	0	0	0	512	511	
10	0	0	0	0	503	509	
11	0	0	0	0	504	511	
12	0	0	0	0	509	512	
13	0	0	0	0	508	514	
14	0	0	0	0	500	514	
15	0	0	0	0	491	512	
0	0	0	0	0	496	513	
1	0	0	0	0	496	516	
2	0	0	0	0	509	516	
3	0	0	0	0	513	508	
4	0	0	0	0	513	508	
5	0	0	0	0	509	519	
6	0	0	0	0	504	519	
7	0	0	0	0	506	507	
8	0	0	0	0	507	512	
9	0	0	0	0	511	513	
10	0	0	0	0	511	514	
11	0	0	0	0	504	508	
12	0	0	0	0	506	508	
13	0	0	0	0	507	509	
14	0	0	0	0	508	507	
15	0	0	0	0	505	504	
0	0	0	0	0	481	507	
1	0	0	0	0	499	512	
2	0	0	0	0	509	514	
3	0	0	0	0	509	516	
4	0	0	0	0	511	514	
5	0	0	0	0	508	514	
6	0	0	0	0	501	514	
7	0	0	0	0	500	511	
8	0	0	0	0	505	512	
9	0	0	0	0	505	513	
10	0	0	0	0	504	513	
11	0	0	0	0	506	513	
12	0	0	0	0	504	511	
13	0	0	0	0	507	510	
14	0	0	0	0	505	513	
15	0	0	0	0	507	511	
0	0	0	0	0	508	512	
1	0	0	0	0	504	509	
2	0	0	0	0	505	512	
3	0	0	0	0	505	510	
4	0	0	0	0	506	510	
5	0	0	0	0	508	508	
6	0	0	0	0	507	508	
7	0	0	0	0	505	511	
8	0	0	0	0	504	510	
9	0	0	0	0	504	510	
10	0	0	0	0	503	511	
11	0	0	0	0	506	513	
12	0	0	0	0	504	512	
13	0	0	0	0	504	515	
14	0	0	0	0	506	514	
15	0	0	0	0	507	521	
0	0	0	0	0	507	524	
1	0	0	0	0	504	523	
2	0	0	0	0	507	521	
3	0	0	0	0	508	515	
4	0	0	0	0	504	512	
5	0	0	0	0	499	510	
6	0	0	0	0	502	508	
7	0	0	0	0	508	504	
8	0	0	0	0	512	499	
9	0	0	0	0	513	500	
10	0	0	0	0	519	503	
11	0	0	0	0	517	509	
12	0	0	0	0	505	513	
13	0	0	0	0	511	510	
14	0	0	0	0	502	507	
15	0	0	0	0	496	507	
0	0	0	0	0	506	506	
1	0	0	0	0	496	502	
2	0	0	0	0	480	510	
3	0	0	0	0	491	519	
4	0	0	0	0	502	523	
5	0	0	0	0	505	526	
6	0	0	0	0	507	523	
7	0	0	0	0	506	515	
8	0	0	0	0	509	521	
9	0	0	0	0	508	524	
10	0	0	0	0	508	527	
11	0	0	0	0	510	518	
12	0	0	0	0	511	511	
13	0	0	0	0	512	511	
14	0	0	0	0	504	504	
15	0	0	0	0	504	507	
0	0	0	0	0	503	505	
1	0	0	0	0	505	506	
2	0	0	0	0	503	507	
3	0	0	0	0	505	505	
4	0	0	0	0	505	506	
5	0	0	0	0	505	507	
6	0	0	0	0	508	508	
7	0	0	0	0	511	513	
8	0	0	0	0	508	514	
9	0	0	0	0	514	512	
10	0	0	0	0	512	512	
11	0	0	0	0	511	509	
12	0	0	0	0	508	508	
13	0	0	0	0	494	511	
14	0	0	0	0	490	516	
15	0	0	0	0	503	519	
0	0	0	0	0	506	513	
1	0	0	0	0	506	507	
2	0	0	0	0	504	509	
3	0	0	0	0	504	512	
4	0	0	0	0	505	513	
5	0	0	0	0	505	513	
6	0	0	0	0	504	511	
7	0	0	0	0	504	507	
8	0	0	0	0	504	508	
9	0	0	0	0	500	506	
10	0	0	0	0	503	510	
11	0	0	0	0	501	512	
12	0	0	0	0	500	512	
13	0	0	0	0	511	516	
14	0	0	0	0	517	511	
15	0	0	0	0	529	506	
0	0	0	0	0	524	512	
1	0	0	0	0	504	512	
2	0	0	0	0	491	514	
3	0	0	0	0	498	515	
4	0	0	0	0	504	516	
5	0	0	0	0	512	515	
6	0	0	0	0	515	514	
7	0	0	0	0	497	514	
8	0	0	0	0	496	513	
9	0	0	0	0	497	507	
10	0	0	0	0	500	508	
11	0	0	0	0	508	511	
12	0	0	0	0	508	513	
13	0	0	0	0	508	510	
14	0	0	0	0	508	513	
15	0	0	0	0	508	513	
0	0	0	0	0	505	510	
1	0	0	0	0	506	511	
2	0	0	0	0	505	511	
3	0	0	0	0	496	513	
4	0	0	0	0	499	511	
5	0	0	0	0	505	512	
6	0	0	0	0	504	510	
7	0	0	0	0	504	516	
8	0	0	0	0	501	513	
9	0	0	0	0	504	514	
10	0	0	0	0	510	516	
11	0	0	0	0	511	511	
12	0	0	0	0	512	512	
13	0	0	0	0	511	515	
14	0	0	0	0	512	508	
15	0	0	0	0	511	505	
0	0	0	0	0	511	508	
1	0	0	0	0	511	512	
2	0	0	0	0	508	514	
3	0	0	0	0	498	512	
4	0	0	0	0	496	517	
5	0	0	0	0	502	515	
6	0	0	0	0	505	512	
7	0	0	0	0	510	515	
8	0	0	0	0	499	512	
9	0	0	0	0	495	507	
10	0	0	0	0	501	509	
11	0	0	0	0	506	512	
12	0	0	0	0	506	512	
13	0	0	0	0	504	512	
14	0	0	0	0	499	514	
15	0	0	0	0	503	511	
0	0	0	0	0	508	506	
1	0	0	0	0	516	505	
2	0	0	0	0	519	510	
3	0	0	0	0	517	513	
4	0	0	0	0	519	515	
5	0	0	0	0	519	515	
6	0	0	0	0	512	513	
7	0	0	0	0	500	507	
8	0	0	0	0	476	509	
9	0	0	0	0	483	510	
10	0	0	0	0	508	512	
11	0	0	0	0	505	514	
12	0	0	0	0	496	518	
13	0	0	0	0	499	512	
14	0	0	0	0	498	512	
15	0	0	0	0	502	511	
0	0	0	0	0	513	513	
1	0	0	0	0	504	515	
2	0	0	0	0	492	511	
3	0	0	0	0	502	508	
4	0	0	0	0	510	510	
5	0	0	0	0	508	512	
6	0	0	0	0	509	513	
7	0	0	0	0	504	513	
8	0	0	0	0	507	509	
9	0	0	0	0	503	507	
10	0	0	0	0	507	508	
11	0	0	0	0	510	513	
12	0	0	0	0	510	513	
13	0	0	0	0	511	512	
14	0	0	0	0	506	511	
15	0	0	0	0	507	513	
0	0	0	0	0	509	513	
1	0	0	0	0	521	510	
2	0	0	0	0	515	512	
3	0	0	0	0	494	511	
4	0	0	0	0	496	510	
5	0	0	0	0	505	511	
6	0	0	0	0	506	512	
7	0	0	0	0	501	515	
8	0	0	0	0	508	517	
9	0	0	0	0	505	513	
10	0	0	0	0	507	518	
11	0	0	0	0	507	518	
12	0	0	0	0	507	512	
13	0	0	0	0	507	512	
14	0	0	0	0	505	513	
15	0	0	0	0	505	511	
0	0	0	0	0	504	510	
1	0	0	0	0	504	511	
2	0	0	0	0	505	511	
3	0	0	0	0	503	510	
4	0	0	0	0	503	508	
5	0	0	0	0	504	510	
6	0	0	0	0	502	511	
7	0	0	0	0	506	508	
8	0	0	0	0	508	509	
9	0	0	0	0	515	509	
10	0	0	0	0	518	512	
11	0	0	0	0	524	517	
12	0	0	0	0	523	519	
13	0	0	0	0	515	517	
14	0	0	0	0	507	508	
15	0	0	0	0	487	508	
0	0	0	0	0	473	515	
1	0	0	0	0	491	513	
2	0	0	0	0	497	513	
3	0	0	0	0	502	515	
4	0	0	0	0	500	512	
5	0	0	0	0	495	508	
6	0	0	0	0	488	505	
7	0	0	0	0	511	507	
8	0	0	0	0	531	514	
9	0	0	0	0	541	516	
10	0	0	0	0	515	512	
11	0	0	0	0	502	507	
12	0	0	0	0	509	508	
13	0	0	0	0	518	513	
14	0	0	0	0	513	510	
15	0	0	0	0	481	508	
0	0	0	0	0	466	503	
1	0	0	0	0	524	510	
2	0	0	0	0	534	512	
3	0	0	0	0	505	516	
4	0	0	0	0	478	515	
5	0	0	0	0	460	513	
6	0	0	0	0	472	515	
7	0	0	0	0	496	512	
8	0	0	0	0	504	512	
9	0	0	0	0	507	517	
10	0	0	0	0	509	519	
11	0	0	0	0	512	512	
12	0	0	0	0	511	506	
13	0	0	0	0	514	509	
14	0	0	0	0	533	508	
15	0	0	0	0	547	510	
0	0	0	0	0	542	509	
1	0	0	0	0	497	514	
2	0	0	0	0	476	511	
3	0	0	0	0	490	513	
4	0	0	0	0	499	512	
5	0	0	0	0	503	513	
6	0	0	0	0	508	514	
7	0	0	0	0	508	513	
8	0	0	0	0	504	519	
9	0	0	0	0	502	523	
10	0	0	0	0	501	518	
11	0	0	0	0	503	509	
12	0	0	0	0	504	507	
13	0	0	0	0	503	508	
14	0	0	0	0	508	510	
15	0	0	0	0	518	508	
0	0	0	0	0	531	511	
1	0	0	0	0	534	509	
2	0	0	0	0	527	515	
3	0	0	0	0	519	519	
4	0	0	0	0	520	519	
5	0	0	0	0	512	513	
6	0	0	0	0	473	502	
7	0	0	0	0	462	502	
8	0	0	0	0	440	498	
9	0	0	0	0	469	494	
10	0	0	0	0	482	512	
11	0	0	0	0	506	524	
12	0	0	0	0	507	519	
13	0	0	0	0	507	515	
14	0	0	0	0	508	516	
15	0	0	0	0	507	513	
0	0	0	0	0	512	512	
1	0	0	0	0	513	507	
2	0	0	0	0	520	505	
3	0	0	0	0	522	508	
4	0	0	0	0	516	509	
5	0	0	0	0	520	510	
6	0	0	0	0	519	515	
7	0	0	0	0	518	514	
8	0	0	0	0	503	512	
9	0	0	0	0	482	514	
10	0	0	0	0	498	514	
11	0	0	0	0	507	518	
12	0	0	0	0	484	519	
13	0	0	0	0	483	510	
14	0	0	0	0	511	504	
15	0	0	0	0	529	512	
0	0	0	0	0	515	513	
1	0	0	0	0	507	519	
2	0	0	0	0	484	520	
3	0	0	0	0	499	516	
4	0	0	0	0	531	515	
5	0	0	0	0	513	510	
6	0	0	0	0	520	511	
7	0	0	0	0	528	512	
8	0	0	0	0	534	511	
9	0	0	0	0	536	520	
10	0	0	0	0	513	515	
11	0	0	0	0	480	508	
12	0	0	0	0	486	502	
13	0	0	0	0	506	502	
14	0	0	0	0	508	499	
15	0	0	0	0	499	500	
0	0	0	0	0	487	511	
1	0	0	0	0	485	517	
2	0	0	0	0	485	525	
3	0	0	0	0	484	520	
4	0	0	0	0	476	510	
5	0	0	0	0	493	507	
6	0	0	0	0	512	507	
7	0	0	0	0	524	506	
8	0	0	0	0	528	508	
9	0	0	0	0	523	511	
10	0	0	0	0	553	514	
11	0	0	0	0	544	508	
12	0	0	0	0	523	514	
13	0	0	0	0	513	524	
14	0	0	0	0	497	525	
15	0	0	0	0	478	519	
0	0	0	0	0	453	507	
1	0	0	0	0	454	513	
2	0	0	0	0	494	511	
3	0	0	0	0	503	502	
4	0	0	0	0	507	507	
5	0	0	0	0	496	510	
6	0	0	0	0	492	516	
7	0	0	0	0	502	520	
8	0	0	0	0	507	522	
9	0	0	0	0	511	513	
10	0	0	0	0	511	511	
11	0	0	0	0	509	512	
12	0	0	0	0	508	512	
13	0	0	0	0	507	509	
14	0	0	0	0	506	500	
15	0	0	0	0	506	499	
0	0	0	0	0	509	508	
1	0	0	0	0	508	516	
2	0	0	0	0	513	511	
3	0	0	0	0	516	509	
4	0	0	0	0	515	509	
5	0	0	0	0	517	510	
6	0	0	0	0	515	515	
7	0	0	0	0	512	525	
8	0	0	0	0	515	524	
9	0	0	0	0	504	521	
10	0	0	0	0	478	515	
11	0	0	0	0	511	506	
12	0	0	0	0	503	497	
13	0	0	0	0	537	513	
14	0	0	0	0	572	521	
15	0	0	0	0	558	518	
0	0	0	0	0	486	504	
1	0	0	0	0	457	500	
2	0	0	0	0	439	499	
3	0	0	0	0	463	504	
4	0	0	0	0	487	512	
5	0	0	0	0	498	514	
6	0	0	0	0	502	515	
7	0	0	0	0	501	511	
8	0	0	0	0	502	508	
9	0	0	0	0	504	505	
10	0	0	0	0	507	513	
11	0	0	0	0	513	521	
12	0	0	0	0	515	513	
13	0	0	0	0	518	508	
14	0	0	0	0	519	507	
15	0	0	0	0	517	508	
0	0	0	0	0	499	511	
1	0	0	0	0	488	510	
2	0	0	0	0	487	513	
3	0	0	0	0	517	516	
4	0	0	0	0	530	517	
5	0	0	0	0	541	517	
6	0	0	0	0	551	525	
7	0	0	0	0	548	524	
8	0	0	0	0	515	521	
9	0	0	0	0	495	506	
10	0	0	0	0	500	504	
11	0	0	0	0	531	509	
12	0	0	0	0	498	501	
13	0	0	0	0	459	511	
14	0	0	0	0	476	521	
15	0	0	0	0	497	521	
0	0	0	0	0	484	516	
1	0	0	0	0	435	514	
2	0	0	0	0	440	505	
3	0	0	0	0	487	499	
4	0	0	0	0	502	499	
5	0	0	0	0	504	503	
6	0	0	0	0	510	503	
7	0	0	0	0	515	515	
8	0	0	0	0	515	517	
9	0	0	0	0	514	513	
10	0	0	0	0	515	521	
11	0	0	0	0	515	521	
12	0	0	0	0	515	519	
13	0	0	0	0	518	517	
14	0	0	0	0	517	512	
15	0	0	0	0	510	498	
0	0	0	0	0	511	496	
1	0	0	0	0	509	504	
2	0	0	0	0	507	512	
3	0	0	0	0	505	513	
4	0	0	0	0	505	514	
5	0	0	0	0	505	514	
6	0	0	0	0	507	519	
7	0	0	0	0	514	524	
8	0	0	0	0	506	524	
9	0	0	0	0	519	515	
10	0	0	0	0	539	507	
11	0	0	0	0	538	505	
12	0	0	0	0	540	514	
13	0	0	0	0	519	512	
14	0	0	0	0	478	495	
15	0	0	0	0	453	508	
0	0	0	0	0	460	515	
1	0	0	0	0	489	512	
2	0	0	0	0	514	513	
3	0	0	0	0	508	518	
4	0	0	0	0	507	512	
5	0	0	0	0	513	510	
6	0	0	0	0	521	515	
7	0	0	0	0	516	516	
8	0	0	0	0	512	519	
9	0	0	0	0	515	518	
10	0	0	0	0	502	515	
11	0	0	0	0	474	507	
12	0	0	0	0	483	505	
13	0	0	0	0	485	500	
14	0	0	0	0	527	521	
15	0	0	0	0	552	519	
0	0	0	0	0	511	514	
1	0	0	0	0	504	514	
2	0	0	0	0	491	502	
3	0	0	0	0	481	506	
4	0	0	0	0	499	510	
5	0	0	0	0	498	507	
6	0	0	0	0	500	505	
7	0	0	0	0	509	509	
8	0	0	0	0	504	510	
9	0	0	0	0	499	513	
10	0	0	0	0	504	511	
11	0	0	0	0	501	511	
12	0	0	0	0	505	512	
13	0	0	0	0	516	520	
14	0	0	0	0	519	525	
15	0	0	0	0	517	520	
0	0	0	0	0	513	520	
1	0	0	0	0	503	513	
2	0	0	0	0	483	508	
3	0	0	0	0	491	512	
4	0	0	0	0	501	508	
5	0	0	0	0	500	500	
6	0	0	0	0	500	496	
7	0	0	0	0	505	500	
8	0	0	0	0	499	504	
9	0	0	0	0	507	510	
10	0	0	0	0	513	515	
11	0	0	0	0	515	515	
12	0	0	0	0	532	512	
13	0	0	0	0	525	513	
14	0	0	0	0	505	518	
15	0	0	0	0	489	512	
0	0	0	0	0	485	508	
1	0	0	0	0	497	511	
2	0	0	0	0	491	516	
3	0	0	0	0	494	515	
4	0	0	0	0	497	519	
5	0	0	0	0	500	515	
6	0	0	0	0	524	511	
7	0	0	0	0	544	507	
8	0	0	0	0	524	506	
9	0	0	0	0	514	514	
10	0	0	0	0	529	516	
11	0	0	0	0	537	518	
12	0	0	0	0	505	515	
13	0	0	0	0	481	514	
14	0	0	0	0	487	512	
15	0	0	0	0	484	510	
0	0	0	0	0	487	519	
1	0	0	0	0	479	524	
2	0	0	0	0	511	522	
3	0	0	0	0	536	514	
4	0	0	0	0	536	504	
5	0	0	0	0	509	480	
6	0	0	0	0	503	490	
7	0	0	0	0	494	516	
8	0	0	0	0	505	527	
9	0	0	0	0	513	530	
10	0	0	0	0	521	525	
11	0	0	0	0	539	522	
12	0	0	0	0	489	516	
13	0	0	0	0	489	479	
14	0	0	0	0	455	493	
15	0	0	0	0	457	503	
0	0	0	0	0	475	512	
1	0	0	0	0	513	516	
2	0	0	0	0	521	509	
3	0	0	0	0	499	509	
4	0	0	0	0	499	511	
5	0	0	0	0	514	512	
6	0	0	0	0	518	511	
7	0	0	0	0	513	515	
8	0	0	0	0	509	513	
9	0	0	0	0	510	506	
10	0	0	0	0	509	511	
11	0	0	0	0	505	519	
12	0	0	0	0	497	530	
13	0	0	0	0	514	526	
14	0	0	0	0	512	520	
15	0	0	0	0	496	513	
0	0	0	0	0	497	500	
1	0	0	0	0	512	500	
2	0	0	0	0	508	509	
3	0	0	0	0	498	511	
4	0	0	0	0	497	507	
5	0	0	0	0	501	502	
6	0	0	0	0	515	509	
7	0	0	0	0	523	514	
8	0	0	0	0	523	511	
9	0	0	0	0	518	516	
10	0	0	0	0	512	522	
11	0	0	0	0	508	521	
12	0	0	0	0	496	519	
13	0	0	0	0	484	517	
14	0	0	0	0	494	504	
15	0	0	0	0	519	497	
0	0	0	0	0	537	504	
1	0	0	0	0	531	505	
2	0	0	0	0	473	504	
3	0	0	0	0	464	507	
4	0	0	0	0	492	513	
5	0	0	0	0	503	507	
6	0	0	0	0	493	495	
7	0	0	0	0	497	504	
8	0	0	0	0	512	518	
9	0	0	0	0	521	524	
10	0	0	0	0	516	528	
11	0	0	0	0	504	531	
12	0	0	0	0	502	527	
13	0	0	0	0	505	516	
14	0	0	0	0	515	523	
15	0	0	0	0	510	510	
0	0	0	0	0	502	497	
1	0	0	0	0	505	502	
2	0	0	0	0	506	502	
3	0	0	0	0	511	503	
4	0	0	0	0	505	505	
5	0	0	0	0	507	510	
6	0	0	0	0	515	508	
7	0	0	0	0	521	512	
8	0	0	0	0	521	517	
9	0	0	0	0	498	515	
10	0	0	0	0	463	513	
11	0	0	0	0	502	513	
12	0	0	0	0	514	512	
13	0	0	0	0	516	512	
14	0	0	0	0	530	511	
15	0	0	0	0	532	517	
0	0	0	0	0	498	519	
1	0	0	0	0	474	521	
2	0	0	0	0	466	521	
3	0	0	0	0	500	520	
4	0	0	0	0	521	515	
5	0	0	0	0	524	503	
6	0	0	0	0	522	504	
7	0	0	0	0	535	508	
8	0	0	0	0	539	509	
9	0	0	0	0	498	512	
10	0	0	0	0	466	511	
11	0	0	0	0	477	513	
12	0	0	0	0	510	514	
13	0	0	0	0	498	513	
14	0	0	0	0	471	506	
15	0	0	0	0	474	515	
0	0	0	0	0	496	511	
1	0	0	0	0	508	505	
2	0	0	0	0	519	500	
3	0	0	0	0	523	509	
4	0	0	0	0	524	512	
5	0	0	0	0	502	523	
6	0	0	0	0	499	531	
7	0	0	0	0	485	520	
8	0	0	0	0	480	514	
9	0	0	0	0	499	510	
10	0	0	0	0	507	490	
11	0	0	0	0	505	488	
12	0	0	0	0	559	510	
13	0	0	0	0	566	514	
14	0	0	0	0	535	507	
15	0	0	0	0	496	503	
0	0	0	0	0	480	513	
1	0	0	0	0	470	519	
2	0	0	0	0	503	524	
3	0	0	0	0	515	531	
4	0	0	0	0	511	528	
5	0	0	0	0	513	515	
6	0	0	0	0	503	507	
7	0	0	0	0	498	499	
8	0	0	0	0	495	503	
9	0	0	0	0	495	509	
10	0	0	0	0	497	513	
11	0	0	0	0	508	519	
12	0	0	0	0	512	511	
13	0	0	0	0	515	512	
14	0	0	0	0	528	516	
15	0	0	0	0	521	515	
0	0	0	0	0	507	515	
1	0	0	0	0	493	503	
2	0	0	0	0	484	496	
3	0	0	0	0	507	507	
4	0	0	0	0	501	512	
5	0	0	0	0	489	524	
6	0	0	0	0	502	526	
7	0	0	0	0	519	515	
8	0	0	0	0	515	507	
9	0	0	0	0	498	507	
10	0	0	0	0	495	507	
11	0	0	0	0	509	510	
12	0	0	0	0	507	512	
13	0	0	0	0	495	515	
14	0	0	0	0	495	522	
15	0	0	0	0	503	524	
0	0	0	0	0	508	519	
1	0	0	0	0	506	505	
2	0	0	0	0	509	501	
3	0	0	0	0	515	506	
4	0	0	0	0	516	507	
5	0	0	0	0	514	504	
6	0	0	0	0	490	498	
7	0	0	0	0	502	500	
8	0	0	0	0	507	506	
9	0	0	0	0	478	510	
10	0	0	0	0	492	511	
11	0	0	0	0	498	505	
12	0	0	0	0	524	514	
13	0	0	0	0	543	526	
14	0	0	0	0	531	524	
15	0	0	0	0	513	519	
0	0	0	0	0	512	516	
1	0	0	0	0	522	513	
2	0	0	0	0	483	516	
3	0	0	0	0	492	516	
4	0	0	0	0	499	517	
5	0	0	0	0	489	519	
6	0	0	0	0	493	517	
7	0	0	0	0	512	519	
8	0	0	0	0	502	504	
9	0	0	0	0	476	497	
10	0	0	0	0	486	501	
11	0	0	0	0	497	501	
12	0	0	0	0	523	504	
13	0	0	0	0	531	508	
14	0	0	0	0	525	519	
15	0	0	0	0	503	518	
0	0	0	0	0	493	512	
1	0	0	0	0	499	510	
2	0	0	0	0	502	513	
3	0	0	0	0	503	517	
4	0	0	0	0	504	520	
5	0	0	0	0	507	519	
6	0	0	0	0	511	510	
7	0	0	0	0	500	505	
8	0	0	0	0	519	503	
9	0	0	0	0	530	510	
10	0	0	0	0	512	511	
11	0	0	0	0	514	500	
12	0	0	0	0	506	510	
13	0	0	0	0	504	519	
14	0	0	0	0	486	519	
15	0	0	0	0	485	520	
0	0	0	0	0	505	518	
1	0	0	0	0	513	519	
2	0	0	0	0	510	505	
3	0	0	0	0	489	504	
4	0	0	0	0	512	513	
5	0	0	0	0	508	510	
6	0	0	0	0	504	510	
7	0	0	0	0	487	504	
8	0	0	0	0	497	505	
9	0	0	0	0	521	521	
10	0	0	0	0	523	523	
11	0	0	0	0	510	516	
12	0	0	0	0	505	510	
13	0	0	0	0	511	509	
14	0	0	0	0	508	512	
15	0	0	0	0	504	507	
0	0	0	0	0	505	503	
1	0	0	0	0	503	503	
2	0	0	0	0	524	505	
3	0	0	0	0	514	504	
4	0	0	0	0	480	518	
5	0	0	0	0	489	521	
6	0	0	0	0	500	523	
7	0	0	0	0	517	531	
8	0	0	0	0	519	524	
9	0	0	0	0	505	504	
10	0	0	0	0	499	511	
11	0	0	0	0	482	512	
12	0	0	0	0	483	517	
13	0	0	0	0	492	495	
14	0	0	0	0	512	472	
15	0	0	0	0	527	477	
0	0	0	0	0	525	491	
1	0	0	0	0	523	508	
2	0	0	0	0	500	509	
3	0	0	0	0	497	516	
4	0	0	0	0	514	510	
5	0	0	0	0	507	514	
6	0	0	0	0	485	525	
7	0	0	0	0	487	532	
8	0	0	0	0	506	540	
9	0	0	0	0	510	539	
10	0	0	0	0	515	524	
11	0	0	0	0	500	531	
12	0	0	0	0	483	534	
13	0	0	0	0	503	529	
14	0	0	0	0	509	520	
15	0	0	0	0	500	502	
0	0	0	0	0	501	493	
1	0	0	0	0	507	509	
2	0	0	0	0	511	511	
3	0	0	0	0	508	504	
4	0	0	0	0	510	503	
5	0	0	0	0	512	497	
6	0	0	0	0	506	496	
7	0	0	0	0	512	512	
8	0	0	0	0	519	520	
9	0	0	0	0	519	513	
10	0	0	0	0	528	511	
11	0	0	0	0	547	517	
12	0	0	0	0	527	525	
13	0	0	0	0	496	522	
14	0	0	0	0	480	519	
15	0	0	0	0	487	520	
0	0	0	0	0	480	503	
1	0	0	0	0	472	487	
2	0	0	0	0	481	487	
3	0	0	0	0	492	492	
4	0	0	0	0	500	500	
5	0	0	0	0	505	515	
6	0	0	0	0	521	513	
7	0	0	0	0	516	516	
8	0	0	0	0	510	516	
9	0	0	0	0	521	514	
10	0	0	0	0	512	508	
11	0	0	0	0	494	499	
12	0	0	0	0	504	508	
13	0	0	0	0	506	515	
14	0	0	0	0	496	516	
15	0	0	0	0	501	517	
0	0	0	0	0	512	521	
1	0	0	0	0	498	521	
2	0	0	0	0	503	519	
3	0	0	0	0	510	518	
4	0	0	0	0	522	516	
5	0	0	0	0	524	521	
6	0	0	0	0	519	521	
7	0	0	0	0	515	528	
8	0	0	0	0	529	518	
9	0	0	0	0	502	504	
10	0	0	0	0	470	490	
11	0	0	0	0	462	495	
12	0	0	0	0	489	505	
13	0	0	0	0	490	510	
14	0	0	0	0	525	511	
15	0	0	0	0	534	510	
0	0	0	0	0	531	516	
1	0	0	0	0	542	523	
2	0	0	0	0	527	522	
3	0	0	0	0	507	523	
4	0	0	0	0	536	519	
5	0	0	0	0	508	505	
6	0	0	0	0	437	503	
7	0	0	0	0	450	497	
8	0	0	0	0	500	512	
9	0	0	0	0	528	519	
10	0	0	0	0	526	514	
11	0	0	0	0	496	508	
12	0	0	0	0	509	497	
13	0	0	0	0	525	493	
14	0	0	0	0	515	502	
15	0	0	0	0	487	513	
0	0	0	0	0	495	521	
1	0	0	0	0	483	527	
2	0	0	0	0	492	528	
3	0	0	0	0	493	514	
4	0	0	0	0	507	513	
5	0	0	0	0	496	513	
6	0	0	0	0	494	508	
7	0	0	0	0	512	505	
8	0	0	0	0	520	499	
9	0	0	0	0	544	498	
10	0	0	0	0	489	504	
11	0	0	0	0	472	512	
12	0	0	0	0	491	504	
13	0	0	0	0	506	508	
14	0	0	0	0	537	514	
15	0	0	0	0	536	519	
0	0	0	0	0	521	529	
1	0	0	0	0	515	521	
2	0	0	0	0	515	518	
3	0	0	0	0	493	516	
4	0	0	0	0	469	512	
5	0	0	0	0	482	511	
6	0	0	0	0	510	515	
7	0	0	0	0	513	521	
8	0	0	0	0	511	518	
9	0	0	0	0	510	518	
10	0	0	0	0	515	519	
11	0	0	0	0	493	495	
12	0	0	0	0	475	491	
13	0	0	0	0	487	499	
14	0	0	0	0	494	504	
15	0	0	0	0	502	520	
0	0	0	0	0	518	540	
1	0	0	0	0	515	532	
2	0	0	0	0	507	521	
3	0	0	0	0	508	511	
4	0	0	0	0	523	507	
5	0	0	0	0	524	499	
6	0	0	0	0	503	496	
7	0	0	0	0	508	502	
8	0	0	0	0	512	511	
9	0	0	0	0	512	522	
10	0	0	0	0	511	508	
11	0	0	0	0	502	502	
12	0	0	0	0	485	497	
13	0	0	0	0	492	504	
14	0	0	0	0	504	510	
15	0	0	0	0	498	505	
0	0	0	0	0	494	507	
1	0	0	0	0	497	519	
2	0	0	0	0	481	518	
3	0	0	0	0	491	522	
4	0	0	0	0	528	527	
5	0	0	0	0	544	530	
6	0	0	0	0	527	510	
7	0	0	0	0	506	500	
8	0	0	0	0	533	510	
9	0	0	0	0	503	509	
10	0	0	0	0	492	514	
11	0	0	0	0	508	512	
12	0	0	0	0	509	515	
13	0	0	0	0	505	516	
14	0	0	0	0	506	513	
15	0	0	0	0	504	510	
0	0	0	0	0	502	508	
1	0	0	0	0	502	514	
2	0	0	0	0	502	516	
3	0	0	0	0	501	518	
4	0	0	0	0	500	513	
5	0	0	0	0	499	507	
6	0	0	0	0	516	513	
7	0	0	0	0	527	519	
8	0	0	0	0	539	521	
9	0	0	0	0	515	519	
10	0	0	0	0	503	505	
11	0	0	0	0	496	484	
12	0	0	0	0	483	497	
13	0	0	0	0	467	515	
14	0	0	0	0	478	523	
15	0	0	0	0	503	523	
0	0	0	0	0	531	525	
1	0	0	0	0	556	520	
2	0	0	0	0	604	528	
3	0	0	0	0	587	499	
4	0	0	0	0	520	483	
5	0	0	0	0	505	497	
6	0	0	0	0	448	503	
7	0	0	0	0	457	511	
8	0	0	0	0	489	495	
9	0	0	0	0	474	501	
10	0	0	0	0	439	512	
11	0	0	0	0	405	512	
12	0	0	0	0	430	521	
13	0	0	0	0	467	516	
14	0	0	0	0	491	518	
15	0	0	0	0	494	520	
0	0	0	0	0	512	527	
1	0	0	0	0	534	528	
2	0	0	0	0	542	521	
3	0	0	0	0	539	519	
4	0	0	0	0	524	511	
5	0	0	0	0	513	507	
6	0	0	0	0	517	517	
7	0	0	0	0	514	500	
8	0	0	0	0	512	489	
9	0	0	0	0	512	494	
10	0	0	0	0	508	503	
11	0	0	0	0	506	496	
12	0	0	0	0	503	492	
13	0	0	0	0	512	511	
14	0	0	0	0	519	521	
15	0	0	0	0	512	522	
0	0	0	0	0	522	528	
1	0	0	0	0	524	529	
2	0	0	0	0	502	511	
3	0	0	0	0	468	497	
4	0	0	0	0	518	515	
5	0	0	0	0	544	514	
6	0	0	0	0	529	507	
7	0	0	0	0	540	508	
8	0	0	0	0	541	524	
9	0	0	0	0	496	510	
10	0	0	0	0	490	511	
11	0	0	0	0	471	519	
12	0	0	0	0	447	531	
13	0	0	0	0	450	531	
14	0	0	0	0	489	524	
15	0	0	0	0	508	515	
0	0	0	0	0	510	508	
1	0	0	0	0	516	505	
2	0	0	0	0	507	499	
3	0	0	0	0	504	502	
4	0	0	0	0	506	498	
5	0	0	0	0	508	492	
6	0	0	0	0	505	507	
7	0	0	0	0	499	514	
8	0	0	0	0	511	517	
9	0	0	0	0	504	516	
10	0	0	0	0	478	514	
11	0	0	0	0	492	502	
12	0	0	0	0	543	510	
13	0	0	0	0	572	519	
14	0	0	0	0	564	531	
15	0	0	0	0	528	529	
0	0	0	0	0	522	517	
1	0	0	0	0	491	514	
2	0	0	0	0	439	520	
3	0	0	0	0	458	505	
4	0	0	0	0	504	495	
5	0	0	0	0	509	510	
6	0	0	0	0	493	518	
7	0	0	0	0	476	526	
8	0	0	0	0	494	515	
9	0	0	0	0	512	512	
10	0	0	0	0	520	502	
11	0	0	0	0	535	487	
12	0	0	0	0	534	504	
13	0	0	0	0	519	516	
14	0	0	0	0	507	520	
15	0	0	0	0	494	502	
0	0	0	0	0	476	500	
1	0	0	0	0	462	496	
2	0	0	0	0	515	504	
3	0	0	0	0	539	499	
4	0	0	0	0	531	524	
5	0	0	0	0	526	545	
6	0	0	0	0	537	531	
7	0	0	0	0	536	512	
8	0	0	0	0	492	493	
9	0	0	0	0	469	510	
10	0	0	0	0	472	497	
11	0	0	0	0	470	511	
12	0	0	0	0	507	509	
13	0	0	0	0	513	493	
14	0	0	0	0	446	492	
15	0	0	0	0	492	508	
0	0	0	0	0	527	514	
1	0	0	0	0	550	514	
2	0	0	0	0	574	532	
3	0	0	0	0	527	530	
4	0	0	0	0	449	518	
5	0	0	0	0	424	502	
6	0	0	0	0	472	508	
7	0	0	0	0	497	500	
8	0	0	0	0	499	504	
9	0	0	0	0	491	489	
10	0	0	0	0	501	470	
11	0	0	0	0	518	471	
12	0	0	0	0	512	472	
13	0	0	0	0	499	484	
14	0	0	0	0	503	504	
15	0	0	0	0	518	529	
0	0	0	0	0	522	577	
1	0	0	0	0	526	616	
2	0	0	0	0	524	628	
3	0	0	0	0	521	585	
4	0	0	0	0	519	545	
5	0	0	0	0	512	532	
6	0	0	0	0	510	517	
7	0	0	0	0	505	484	
8	0	0	0	0	510	476	
9	0	0	0	0	523	485	
10	0	0	0	0	524	484	
11	0	0	0	0	523	510	
12	0	0	0	0	528	537	
13	0	0	0	0	526	507	
14	0	0	0	0	489	471	
15	0	0	0	0	461	450	
0	0	0	0	0	477	467	
1	0	0	0	0	510	499	
2	0	0	0	0	503	509	
3	0	0	0	0	489	492	
4	0	0	0	0	510	480	
5	0	0	0	0	483	471	
6	0	0	0	0	470	465	
7	0	0	0	0	501	544	
8	0	0	0	0	526	593	
9	0	0	0	0	531	573	
10	0	0	0	0	519	536	
11	0	0	0	0	497	537	
12	0	0	0	0	490	540	
13	0	0	0	0	501	528	
14	0	0	0	0	491	521	
15	0	0	0	0	504	532	
0	0	0	0	0	518	548	
1	0	0	0	0	524	552	
2	0	0	0	0	512	535	
3	0	0	0	0	493	519	
4	0	0	0	0	507	493	
5	0	0	0	0	501	467	
6	0	0	0	0	515	484	
7	0	0	0	0	514	503	
8	0	0	0	0	513	497	
9	0	0	0	0	531	503	
10	0	0	0	0	510	503	
11	0	0	0	0	473	500	
12	0	0	0	0	473	503	
13	0	0	0	0	495	500	
14	0	0	0	0	500	496	
15	0	0	0	0	505	498	
0	0	0	0	0	506	505	
1	0	0	0	0	502	505	
2	0	0	0	0	502	504	
3	0	0	0	0	509	505	
4	0	0	0	0	512	514	
5	0	0	0	0	513	513	
6	0	0	0	0	516	511	
7	0	0	0	0	523	506	
8	0	0	0	0	520	506	
9	0	0	0	0	515	512	
10	0	0	0	0	519	526	
11	0	0	0	0	505	527	
12	0	0	0	0	483	521	
13	0	0	0	0	480	509	
14	0	0	0	0	496	506	
15	0	0	0	0	504	508	
0	0	0	0	0	511	503	
1	0	0	0	0	515	499	
2	0	0	0	0	517	498	
3	0	0	0	0	519	499	
4	0	0	0	0	499	505	
5	0	0	0	0	482	511	
6	0	0	0	0	470	519	
7	0	0	0	0	487	516	
8	0	0	0	0	510	513	
9	0	0	0	0	515	515	
10	0	0	0	0	511	517	
11	0	0	0	0	503	522	
12	0	0	0	0	505	530	
13	0	0	0	0	512	529	
14	0	0	0	0	528	532	
15	0	0	0	0	534	527	
0	0	0	0	0	520	511	
1	0	0	0	0	502	505	
2	0	0	0	0	504	505	
3	0	0	0	0	506	503	
4	0	0	0	0	477	504	
5	0	0	0	0	473	508	
6	0	0	0	0	483	495	
7	0	0	0	0	519	499	
8	0	0	0	0	551	511	
9	0	0	0	0	540	513	
10	0	0	0	0	532	519	
11	0	0	0	0	478	530	
12	0	0	0	0	476	518	
13	0	0	0	0	497	519	
14	0	0	0	0	487	527	
15	0	0	0	0	488	521	
0	0	0	0	0	486	514	
1	0	0	0	0	489	519	
2	0	0	0	0	508	512	
3	0	0	0	0	540	497	
4	0	0	0	0	561	499	
5	0	0	0	0	531	484	
6	0	0	0	0	522	496	
7	0	0	0	0	531	502	
8	0	0	0	0	548	506	
9	0	0	0	0	480	522	
10	0	0	0	0	480	501	
11	0	0	0	0	489	526	
12	0	0	0	0	492	540	
13	0	0	0	0	477	525	
14	0	0	0	0	500	508	
15	0	0	0	0	500	500	
0	0	0	0	0	472	495	
1	0	0	0	0	484	501	
2	0	0	0	0	488	512	
3	0	0	0	0	505	514	
4	0	0	0	0	507	521	
5	0	0	0	0	486	515	
6	0	0	0	0	481	514	
7	0	0	0	0	497	507	
8	0	0	0	0	516	496	
9	0	0	0	0	526	497	
10	0	0	0	0	523	504	
11	0	0	0	0	516	512	
12	0	0	0	0	510	518	
13	0	0	0	0	541	523	
14	0	0	0	0	534	523	
15	0	0	0	0	510	529	
0	0	0	0	0	504	536	
1	0	0	0	0	497	526	
2	0	0	0	0	481	513	
3	0	0	0	0	463	497	
4	0	0	0	0	486	497	
5	0	0	0	0	496	492	
6	0	0	0	0	504	497	
7	0	0	0	0	513	504	
8	0	0	0	0	512	517	
9	0	0	0	0	511	527	
10	0	0	0	0	510	523	
11	0	0	0	0	508	510	
12	0	0	0	0	510	504	
13	0	0	0	0	507	505	
14	0	0	0	0	505	519	
15	0	0	0	0	506	518	
0	0	0	0	0	512	515	
1	0	0	0	0	524	522	
2	0	0	0	0	530	521	
3	0	0	0	0	520	512	
4	0	0	0	0	513	520	
5	0	0	0	0	537	525	
6	0	0	0	0	521	518	
7	0	0	0	0	491	509	
8	0	0	0	0	492	507	
9	0	0	0	0	476	503	
10	0	0	0	0	486	487	
11	0	0	0	0	505	472	
12	0	0	0	0	498	474	
13	0	0	0	0	494	480	
14	0	0	0	0	500	481	
15	0	0	0	0	507	488	
0	0	0	0	0	511	511	
1	0	0	0	0	526	515	
2	0	0	0	0	523	518	
3	0	0	0	0	508	529	
4	0	0	0	0	500	612	
5	0	0	0	0	465	639	
6	0	0	0	0	492	585	
7	0	0	0	0	524	546	
8	0	0	0	0	515	498	
9	0	0	0	0	511	474	
10	0	0	0	0	507	471	
11	0	0	0	0	493	488	
12	0	0	0	0	500	508	
13	0	0	0	0	508	504	
14	0	0	0	0	515	507	
15	0	0	0	0	519	506	
0	0	0	0	0	516	478	
1	0	0	0	0	488	487	
2	0	0	0	0	474	506	
3	0	0	0	0	501	515	
4	0	0	0	0	526	524	
5	0	0	0	0	519	524	
6	0	0	0	0	527	509	
7	0	0	0	0	502	502	
8	0	0	0	0	487	499	
9	0	0	0	0	481	502	
10	0	0	0	0	473	516	
11	0	0	0	0	483	523	
12	0	0	0	0	507	517	
13	0	0	0	0	510	514	
14	0	0	0	0	512	515	
15	0	0	0	0	515	505	
0	0	0	0	0	508	492	
1	0	0	0	0	500	491	
2	0	0	0	0	511	503	
3	0	0	0	0	503	503	
4	0	0	0	0	517	508	
5	0	0	0	0	519	515	
6	0	0	0	0	507	524	
7	0	0	0	0	498	524	
8	0	0	0	0	498	512	
9	0	0	0	0	523	520	
10	0	0	0	0	532	519	
11	0	0	0	0	513	525	
12	0	0	0	0	514	519	
13	0	0	0	0	515	506	
14	0	0	0	0	485	505	
15	0	0	0	0	483	505	
0	0	0	0	0	483	499	
1	0	0	0	0	483	505	
2	0	0	0	0	504	497	
3	0	0	0	0	515	504	
4	0	0	0	0	519	506	
5	0	0	0	0	516	497	
6	0	0	0	0	512	482	
7	0	0	0	0	511	479	
8	0	0	0	0	483	489	
9	0	0	0	0	473	521	
10	0	0	0	0	493	521	
11	0	0	0	0	515	523	
12	0	0	0	0	519	534	
13	0	0	0	0	516	553	
14	0	0	0	0	504	583	
15	0	0	0	0	494	558	
0	0	0	0	0	506	540	
1	0	0	0	0	513	527	
2	0	0	0	0	513	522	
3	0	0	0	0	518	512	
4	0	0	0	0	528	515	
5	0	0	0	0	540	517	
6	0	0	0	0	512	518	
7	0	0	0	0	499	511	
8	0	0	0	0	502	512	
9	0	0	0	0	473	499	
10	0	0	0	0	454	490	
11	0	0	0	0	479	484	
12	0	0	0	0	512	484	
13	0	0	0	0	520	479	
14	0	0	0	0	524	483	
15	0	0	0	0	543	495	
0	0	0	0	0	542	499	
1	0	0	0	0	510	505	
2	0	0	0	0	469	500	
3	0	0	0	0	450	497	
4	0	0	0	0	479	504	
5	0	0	0	0	528	509	
6	0	0	0	0	552	513	
7	0	0	0	0	546	504	
8	0	0	0	0	474	519	
9	0	0	0	0	474	517	
10	0	0	0	0	487	516	
11	0	0	0	0	496	508	
12	0	0	0	0	505	518	
13	0	0	0	0	513	523	
14	0	0	0	0	515	527	
15	0	0	0	0	513	526	
0	0	0	0	0	517	527	
1	0	0	0	0	517	530	
2	0	0	0	0	499	539	
3	0	0	0	0	476	540	
4	0	0	0	0	483	531	
5	0	0	0	0	500	531	
6	0	0	0	0	510	525	
7	0	0	0	0	519	521	
8	0	0	0	0	527	508	
9	0	0	0	0	524	500	
10	0	0	0	0	527	491	
11	0	0	0	0	538	502	
12	0	0	0	0	536	491	
13	0	0	0	0	479	492	
14	0	0	0	0	427	483	
15	0	0	0	0	489	499	
0	0	0	0	0	514	489	
1	0	0	0	0	492	482	
2	0	0	0	0	515	511	
3	0	0	0	0	522	499	
4	0	0	0	0	531	497	
5	0	0	0	0	493	546	
6	0	0	0	0	435	536	
7	0	0	0	0	468	524	
8	0	0	0	0	512	547	
9	0	0	0	0	535	561	
10	0	0	0	0	540	550	
11	0	0	0	0	524	533	
12	0	0	0	0	516	516	
13	0	0	0	0	519	501	
14	0	0	0	0	506	493	
15	0	0	0	0	495	483	
0	0	0	0	0	489	491	
1	0	0	0	0	495	495	
2	0	0	0	0	503	498	
3	0	0	0	0	504	506	
4	0	0	0	0	507	514	
5	0	0	0	0	505	514	
6	0	0	0	0	523	500	
7	0	0	0	0	519	505	
8	0	0	0	0	523	511	
9	0	0	0	0	542	508	
10	0	0	0	0	519	509	
11	0	0	0	0	467	509	
12	0	0	0	0	477	504	
13	0	0	0	0	487	494	
14	0	0	0	0	491	483	
15	0	0	0	0	484	492	
0	0	0	0	0	529	509	
1	0	0	0	0	532	545	
2	0	0	0	0	511	531	
3	0	0	0	0	505	527	
4	0	0	0	0	512	521	
5	0	0	0	0	499	501	
6	0	0	0	0	486	512	
7	0	0	0	0	504	520	
8	0	0	0	0	489	524	
9	0	0	0	0	476	519	
10	0	0	0	0	507	532	
11	0	0	0	0	506	531	
12	0	0	0	0	514	522	
13	0	0	0	0	508	524	
14	0	0	0	0	497	525	
15	0	0	0	0	499	499	
0	0	0	0	0	515	505	
1	0	0	0	0	517	492	
2	0	0	0	0	517	474	
3	0	0	0	0	511	477	
4	0	0	0	0	513	486	
5	0	0	0	0	513	485	
6	0	0	0	0	519	491	
7	0	0	0	0	514	500	
8	0	0	0	0	492	504	
9	0	0	0	0	504	518	
10	0	0	0	0	510	523	
11	0	0	0	0	509	510	
12	0	0	0	0	489	523	
13	0	0	0	0	476	566	
14	0	0	0	0	498	574	
15	0	0	0	0	524	552	
0	0	0	0	0	525	532	
1	0	0	0	0	515	509	
2	0	0	0	0	508	499	
3	0	0	0	0	494	497	
4	0	0	0	0	504	494	
5	0	0	0	0	523	501	
6	0	0	0	0	513	505	
7	0	0	0	0	504	525	
8	0	0	0	0	489	518	
9	0	0	0	0	498	507	
10	0	0	0	0	508	505	
11	0	0	0	0	496	534	
12	0	0	0	0	505	554	
13	0	0	0	0	480	532	
14	0	0	0	0	480	515	
15	0	0	0	0	487	500	
0	0	0	0	0	492	499	
1	0	0	0	0	521	483	
2	0	0	0	0	510	476	
3	0	0	0	0	529	491	
4	0	0	0	0	515	506	
5	0	0	0	0	496	504	
6	0	0	0	0	506	509	
7	0	0	0	0	523	507	
8	0	0	0	0	508	511	
9	0	0	0	0	506	519	
10	0	0	0	0	498	511	
11	0	0	0	0	497	504	
12	0	0	0	0	509	511	
13	0	0	0	0	508	517	
14	0	0	0	0	503	513	
15	0	0	0	0	503	503	
0	0	0	0	0	504	506	
1	0	0	0	0	510	525	
2	0	0	0	0	512	515	
3	0	0	0	0	515	512	
4	0	0	0	0	519	515	
5	0	0	0	0	524	526	
6	0	0	0	0	502	545	
7	0	0	0	0	484	527	
8	0	0	0	0	475	509	
9	0	0	0	0	499	492	
10	0	0	0	0	501	476	
11	0	0	0	0	512	485	
12	0	0	0	0	519	517	
13	0	0	0	0	511	520	
14	0	0	0	0	529	509	
15	0	0	0	0	504	501	
0	0	0	0	0	473	499	
1	0	0	0	0	499	515	
2	0	0	0	0	527	520	
3	0	0	0	0	517	527	
4	0	0	0	0	490	524	
5	0	0	0	0	503	526	
6	0	0	0	0	511	519	
7	0	0	0	0	509	533	
8	0	0	0	0	508	522	
9	0	0	0	0	505	509	
10	0	0	0	0	512	506	
11	0	0	0	0	497	503	
12	0	0	0	0	487	497	
13	0	0	0	0	499	505	
14	0	0	0	0	494	520	
15	0	0	0	0	483	510	
0	0	0	0	0	497	501	
1	0	0	0	0	528	498	
2	0	0	0	0	516	493	
3	0	0	0	0	505	504	
4	0	0	0	0	502	506	
5	0	0	0	0	487	513	
6	0	0	0	0	501	517	
7	0	0	0	0	530	504	
8	0	0	0	0	536	496	
9	0	0	0	0	532	514	
10	0	0	0	0	517	543	
11	0	0	0	0	509	538	
12	0	0	0	0	521	527	
13	0	0	0	0	488	526	
14	0	0	0	0	494	527	
15	0	0	0	0	518	519	
0	0	0	0	0	519	506	
1	0	0	0	0	507	481	
2	0	0	0	0	501	468	
3	0	0	0	0	512	486	
4	0	0	0	0	475	494	
5	0	0	0	0	433	505	
6	0	0	0	0	479	507	
7	0	0	0	0	520	482	
8	0	0	0	0	534	516	
9	0	0	0	0	524	567	
10	0	0	0	0	496	576	
11	0	0	0	0	500	541	
12	0	0	0	0	492	519	
13	0	0	0	0	484	504	
14	0	0	0	0	491	504	
15	0	0	0	0	489	528	
0	0	0	0	0	507	542	
1	0	0	0	0	523	534	
2	0	0	0	0	521	519	
3	0	0	0	0	512	508	
4	0	0	0	0	515	493	
5	0	0	0	0	519	479	
6	0	0	0	0	511	476	
7	0	0	0	0	498	477	
8	0	0	0	0	499	488	
9	0	0	0	0	517	500	
10	0	0	0	0	518	502	
11	0	0	0	0	510	523	
12	0	0	0	0	511	564	
13	0	0	0	0	519	543	
14	0	0	0	0	527	509	
15	0	0	0	0	487	502	
0	0	0	0	0	478	511	
1	0	0	0	0	500	518	
2	0	0	0	0	511	508	
3	0	0	0	0	509	512	
4	0	0	0	0	492	499	
5	0	0	0	0	495	495	
6	0	0	0	0	510	516	
7	0	0	0	0	512	518	
8	0	0	0	0	504	505	
9	0	0	0	0	499	509	
10	0	0	0	0	503	516	
11	0	0	0	0	490	510	
12	0	0	0	0	487	513	
13	0	0	0	0	519	520	
14	0	0	0	0	529	527	
15	0	0	0	0	545	523	
0	0	0	0	0	541	522	
1	0	0	0	0	539	518	
2	0	0	0	0	521	517	
3	0	0	0	0	485	497	
4	0	0	0	0	447	479	
5	0	0	0	0	455	478	
6	0	0	0	0	498	469	
7	0	0	0	0	499	486	
8	0	0	0	0	488	508	
9	0	0	0	0	511	516	
10	0	0	0	0	508	511	
11	0	0	0	0	504	504	
12	0	0	0	0	504	511	
13	0	0	0	0	499	545	
14	0	0	0	0	483	550	
15	0	0	0	0	479	525	
0	0	0	0	0	501	531	
1	0	0	0	0	522	554	
2	0	0	0	0	528	519	
3	0	0	0	0	559	466	
4	0	0	0	0	573	459	
5	0	0	0	0	540	462	
6	0	0	0	0	510	471	
7	0	0	0	0	487	493	
8	0	0	0	0	476	504	
9	0	0	0	0	492	545	
10	0	0	0	0	503	588	
11	0	0	0	0	496	566	
12	0	0	0	0	476	550	
13	0	0	0	0	489	578	
14	0	0	0	0	499	551	
15	0	0	0	0	498	500	
0	0	0	0	0	504	468	
1	0	0	0	0	508	508	
2	0	0	0	0	516	550	
3	0	0	0	0	524	524	
4	0	0	0	0	520	504	
5	0	0	0	0	508	500	
6	0	0	0	0	508	503	
7	0	0	0	0	490	509	
8	0	0	0	0	482	508	
9	0	0	0	0	501	513	
10	0	0	0	0	507	510	
11	0	0	0	0	506	505	
12	0	0	0	0	512	504	
13	0	0	0	0	519	492	
14	0	0	0	0	515	486	
15	0	0	0	0	515	492	
0	0	0	0	0	517	497	
1	0	0	0	0	500	491	
2	0	0	0	0	496	500	
3	0	0	0	0	489	501	
4	0	0	0	0	491	483	
5	0	0	0	0	502	484	
6	0	0	0	0	497	521	
7	0	0	0	0	516	556	
8	0	0	0	0	535	552	
9	0	0	0	0	511	540	
10	0	0	0	0	498	519	
11	0	0	0	0	521	512	
12	0	0	0	0	491	528	
13	0	0	0	0	451	505	
14	0	0	0	0	474	500	
15	0	0	0	0	508	525	
0	0	0	0	0	536	523	
1	0	0	0	0	523	505	
2	0	0	0	0	531	507	
3	0	0	0	0	525	490	
4	0	0	0	0	512	485	
5	0	0	0	0	503	495	
6	0	0	0	0	497	509	
7	0	0	0	0	494	519	
8	0	0	0	0	463	526	
9	0	0	0	0	469	519	
10	0	0	0	0	504	520	
11	0	0	0	0	526	510	
12	0	0	0	0	535	497	
13	0	0	0	0	531	500	
14	0	0	0	0	523	493	
15	0	0	0	0	508	510	
0	0	0	0	0	463	516	
1	0	0	0	0	449	518	
2	0	0	0	0	483	513	
3	0	0	0	0	510	510	
4	0	0	0	0	525	502	
5	0	0	0	0	532	503	
6	0	0	0	0	518	498	
7	0	0	0	0	502	504	
8	0	0	0	0	493	498	
9	0	0	0	0	512	510	
10	0	0	0	0	515	514	
11	0	0	0	0	525	508	
12	0	0	0	0	527	505	
13	0	0	0	0	518	549	
14	0	0	0	0	501	557	
15	0	0	0	0	499	553	
0	0	0	0	0	507	546	
1	0	0	0	0	504	538	
2	0	0	0	0	504	525	
3	0	0	0	0	513	512	
4	0	0	0	0	500	505	
5	0	0	0	0	483	503	
6	0	0	0	0	491	480	
7	0	0	0	0	504	462	
8	0	0	0	0	497	447	
9	0	0	0	0	498	443	
10	0	0	0	0	509	458	
11	0	0	0	0	508	462	
12	0	0	0	0	520	468	
13	0	0	0	0	509	468	
14	0	0	0	0	507	502	
15	0	0	0	0	500	533	
0	0	0	0	0	523	595	
1	0	0	0	0	528	625	
2	0	0	0	0	523	646	
3	0	0	0	0	492	642	
4	0	0	0	0	493	564	
5	0	0	0	0	509	520	
6	0	0	0	0	536	512	
7	0	0	0	0	529	515	
8	0	0	0	0	511	510	
9	0	0	0	0	515	491	
10	0	0	0	0	507	466	
11	0	0	0	0	509	458	
12	0	0	0	0	500	462	
13	0	0	0	0	489	463	
14	0	0	0	0	455	478	
15	0	0	0	0	438	499	
0	0	0	0	0	484	537	
1	0	0	0	0	528	559	
2	0	0	0	0	518	542	
3	0	0	0	0	465	492	
4	0	0	0	0	468	469	
5	0	0	0	0	489	495	
6	0	0	0	0	512	522	
7	0	0	0	0	516	516	
8	0	0	0	0	518	524	
9	0	0	0	0	518	527	
10	0	0	0	0	518	519	
11	0	0	0	0	520	519	
12	0	0	0	0	515	518	
13	0	0	0	0	509	508	
14	0	0	0	0	502	492	
15	0	0	0	0	498	510	
0	0	0	0	0	496	529	
1	0	0	0	0	521	496	
2	0	0	0	0	535	496	
3	0	0	0	0	518	497	
4	0	0	0	0	520	504	
5	0	0	0	0	511	496	
6	0	0	0	0	479	499	
7	0	0	0	0	503	503	
8	0	0	0	0	519	496	
9	0	0	0	0	512	489	
10	0	0	0	0	507	487	
11	0	0	0	0	518	503	
12	0	0	0	0	501	496	
13	0	0	0	0	488	493	
14	0	0	0	0	465	510	
15	0	0	0	0	496	513	
0	0	0	0	0	517	534	
1	0	0	0	0	512	548	
2	0	0	0	0	509	560	
3	0	0	0	0	489	553	
4	0	0	0	0	487	558	
5	0	0	0	0	508	532	
6	0	0	0	0	516	524	
7	0	0	0	0	515	513	
8	0	0	0	0	500	513	
9	0	0	0	0	501	542	
10	0	0	0	0	504	525	
11	0	0	0	0	508	493	
12	0	0	0	0	511	499	
13	0	0	0	0	515	490	
14	0	0	0	0	524	483	
15	0	0	0	0	526	508	
0	0	0	0	0	526	500	
1	0	0	0	0	535	505	
2	0	0	0	0	555	512	
3	0	0	0	0	477	499	
4	0	0	0	0	438	530	
5	0	0	0	0	497	540	
6	0	0	0	0	487	526	
7	0	0	0	0	470	509	
8	0	0	0	0	512	479	
9	0	0	0	0	490	467	
10	0	0	0	0	488	480	
11	0	0	0	0	514	486	
12	0	0	0	0	532	494	
13	0	0	0	0	529	511	
14	0	0	0	0	510	543	
15	0	0	0	0	518	590	
0	0	0	0	0	480	564	
1	0	0	0	0	449	531	
2	0	0	0	0	510	518	
3	0	0	0	0	533	514	
4	0	0	0	0	519	512	
5	0	0	0	0	504	497	
6	0	0	0	0	508	497	
7	0	0	0	0	504	495	
8	0	0	0	0	498	494	
9	0	0	0	0	500	497	
10	0	0	0	0	503	487	
11	0	0	0	0	507	494	
12	0	0	0	0	509	504	
13	0	0	0	0	507	512	
14	0	0	0	0	513	501	
15	0	0	0	0	530	502	
0	0	0	0	0	524	520	
1	0	0	0	0	518	514	
2	0	0	0	0	496	505	
3	0	0	0	0	496	540	
4	0	0	0	0	487	565	
5	0	0	0	0	503	543	
6	0	0	0	0	501	509	
7	0	0	0	0	501	504	
8	0	0	0	0	499	491	
9	0	0	0	0	500	479	
10	0	0	0	0	501	467	
11	0	0	0	0	498	496	
12	0	0	0	0	504	499	
13	0	0	0	0	523	501	
14	0	0	0	0	518	495	
15	0	0	0	0	517	499	
0	0	0	0	0	512	516	
1	0	0	0	0	512	550	
2	0	0	0	0	512	586	
3	0	0	0	0	514	563	
4	0	0	0	0	511	537	
5	0	0	0	0	513	510	
6	0	0	0	0	524	505	
7	0	0	0	0	511	516	
8	0	0	0	0	493	542	
9	0	0	0	0	505	532	
10	0	0	0	0	513	503	
11	0	0	0	0	514	487	
12	0	0	0	0	493	480	
13	0	0	0	0	467	476	
14	0	0	0	0	474	499	
15	0	0	0	0	481	517	
0	0	0	0	0	512	518	
1	0	0	0	0	511	530	
2	0	0	0	0	502	543	
3	0	0	0	0	484	526	
4	0	0	0	0	491	508	
5	0	0	0	0	502	496	
6	0	0	0	0	485	501	
7	0	0	0	0	488	504	
8	0	0	0	0	530	514	
9	0	0	0	0	552	506	
10	0	0	0	0	519	505	
11	0	0	0	0	499	508	
12	0	0	0	0	505	499	
13	0	0	0	0	503	508	
14	0	0	0	0	497	497	
15	0	0	0	0	497	483	
0	0	0	0	0	515	484	
1	0	0	0	0	521	484	
2	0	0	0	0	515	500	
3	0	0	0	0	517	527	
4	0	0	0	0	512	526	
5	0	0	0	0	508	523	
6	0	0	0	0	502	551	
7	0	0	0	0	492	547	
8	0	0	0	0	494	526	
9	0	0	0	0	511	531	
10	0	0	0	0	508	511	
11	0	0	0	0	483	488	
12	0	0	0	0	497	502	
13	0	0	0	0	513	536	
14	0	0	0	0	516	531	
15	0	0	0	0	516	503	
0	0	0	0	0	509	492	
1	0	0	0	0	518	496	
2	0	0	0	0	516	504	
3	0	0	0	0	497	514	
4	0	0	0	0	500	518	
5	0	0	0	0	496	509	
6	0	0	0	0	495	508	
7	0	0	0	0	499	511	
8	0	0	0	0	494	509	
9	0	0	0	0	474	512	
10	0	0	0	0	492	513	
11	0	0	0	0	523	511	
12	0	0	0	0	531	505	
13	0	0	0	0	513	511	
14	0	0	0	0	512	515	
15	0	0	0	0	513	514	
0	0	0	0	0	507	503	
1	0	0	0	0	525	505	
2	0	0	0	0	509	530	
3	0	0	0	0	495	527	
4	0	0	0	0	500	520	
5	0	0	0	0	508	513	
6	0	0	0	0	515	512	
7	0	0	0	0	511	520	
8	0	0	0	0	516	524	
9	0	0	0	0	520	523	
10	0	0	0	0	521	511	
11	0	0	0	0	528	490	
12	0	0	0	0	523	454	
13	0	0	0	0	487	466	
14	0	0	0	0	487	480	
15	0	0	0	0	483	476	
0	0	0	0	0	455	515	
1	0	0	0	0	465	572	
2	0	0	0	0	489	536	
3	0	0	0	0	494	513	
4	0	0	0	0	501	511	
5	0	0	0	0	506	536	
6	0	0	0	0	505	539	
7	0	0	0	0	507	544	
8	0	0	0	0	515	523	
9	0	0	0	0	512	503	
10	0	0	0	0	526	499	
11	0	0	0	0	531	496	
12	0	0	0	0	528	497	
13	0	0	0	0	517	511	
14	0	0	0	0	502	518	
15	0	0	0	0	491	522	
0	0	0	0	0	487	535	
1	0	0	0	0	455	513	
2	0	0	0	0	471	483	
3	0	0	0	0	529	473	
4	0	0	0	0	548	467	
5	0	0	0	0	534	473	
6	0	0	0	0	541	475	
7	0	0	0	0	523	498	
8	0	0	0	0	500	530	
9	0	0	0	0	505	581	
10	0	0	0	0	487	595	
11	0	0	0	0	465	550	
12	0	0	0	0	495	538	
13	0	0	0	0	529	566	
14	0	0	0	0	513	515	
15	0	0	0	0	495	478	
0	0	0	0	0	502	464	
1	0	0	0	0	511	461	
2	0	0	0	0	513	479	
3	0	0	0	0	512	512	
4	0	0	0	0	508	524	
5	0	0	0	0	503	555	
6	0	0	0	0	493	544	
7	0	0	0	0	487	523	
8	0	0	0	0	484	513	
9	0	0	0	0	504	549	
10	0	0	0	0	523	543	
11	0	0	0	0	536	517	
12	0	0	0	0	521	498	
13	0	0	0	0	510	490	
14	0	0	0	0	488	483	
15	0	0	0	0	492	488	
0	0	0	0	0	500	489	
1	0	0	0	0	501	496	
2	0	0	0	0	497	497	
3	0	0	0	0	489	505	
4	0	0	0	0	504	504	
5	0	0	0	0	511	506	
6	0	0	0	0	508	528	
7	0	0	0	0	517	514	
8	0	0	0	0	529	486	
9	0	0	0	0	495	494	
10	0	0	0	0	499	518	
11	0	0	0	0	477	516	
12	0	0	0	0	493	515	
13	0	0	0	0	502	524	
14	0	0	0	0	497	511	
15	0	0	0	0	505	527	
0	0	0	0	0	513	538	
1	0	0	0	0	518	521	
2	0	0	0	0	526	511	
3	0	0	0	0	524	503	
4	0	0	0	0	526	495	
5	0	0	0	0	528	507	
6	0	0	0	0	484	504	
7	0	0	0	0	483	502	
8	0	0	0	0	501	497	
9	0	0	0	0	519	503	
10	0	0	0	0	510	522	
11	0	0	0	0	503	528	
12	0	0	0	0	497	531	
13	0	0	0	0	493	535	
14	0	0	0	0	483	527	
15	0	0	0	0	477	511	
0	0	0	0	0	496	509	
1	0	0	0	0	505	509	
2	0	0	0	0	513	509	
3	0	0	0	0	528	504	
4	0	0	0	0	518	496	
5	0	0	0	0	512	488	
6	0	0	0	0	504	512	
7	0	0	0	0	505	487	
8	0	0	0	0	510	471	
9	0	0	0	0	511	483	
10	0	0	0	0	500	498	
11	0	0	0	0	499	505	
12	0	0	0	0	508	515	
13	0	0	0	0	499	556	
14	0	0	0	0	519	577	
15	0	0	0	0	517	563	
0	0	0	0	0	497	519	
1	0	0	0	0	500	496	
2	0	0	0	0	511	487	
3	0	0	0	0	513	492	
4	0	0	0	0	488	512	
5	0	0	0	0	488	523	
6	0	0	0	0	506	515	
7	0	0	0	0	527	524	
8	0	0	0	0	525	536	
9	0	0	0	0	483	529	
10	0	0	0	0	491	518	
11	0	0	0	0	508	493	
12	0	0	0	0	488	495	
13	0	0	0	0	500	496	
14	0	0	0	0	527	492	
15	0	0	0	0	505	504	
0	0	0	0	0	492	518	
1	0	0	0	0	513	528	
2	0	0	0	0	521	542	
3	0	0	0	0	510	545	
4	0	0	0	0	508	523	
5	0	0	0	0	501	509	
6	0	0	0	0	505	507	
7	0	0	0	0	500	496	
8	0	0	0	0	498	495	
9	0	0	0	0	512	487	
10	0	0	0	0	521	491	
11	0	0	0	0	524	507	
12	0	0	0	0	520	519	
13	0	0	0	0	508	531	
14	0	0	0	0	501	532	
15	0	0	0	0	504	527	
0	0	0	0	0	494	518	
1	0	0	0	0	502	509	
2	0	0	0	0	504	496	
3	0	0	0	0	491	491	
4	0	0	0	0	513	493	
5	0	0	0	0	520	482	
6	0	0	0	0	492	491	
7	0	0	0	0	468	499	
8	0	0	0	0	489	524	
9	0	0	0	0	496	519	
10	0	0	0	0	517	510	
11	0	0	0	0	526	510	
12	0	0	0	0	517	520	
13	0	0	0	0	508	529	
14	0	0	0	0	496	535	
15	0	0	0	0	492	530	
0	0	0	0	0	499	528	
1	0	0	0	0	499	519	
2	0	0	0	0	490	489	
3	0	0	0	0	504	488	
4	0	0	0	0	521	520	
5	0	0	0	0	526	517	
6	0	0	0	0	525	501	
7	0	0	0	0	504	487	
8	0	0	0	0	514	488	
9	0	0	0	0	507	507	
10	0	0	0	0	499	530	
11	0	0	0	0	510	519	
12	0	0	0	0	518	503	
13	0	0	0	0	508	521	
14	0	0	0	0	478	543	
15	0	0	0	0	483	514	
0	0	0	0	0	522	491	
1	0	0	0	0	520	468	
2	0	0	0	0	504	496	
3	0	0	0	0	521	504	
4	0	0	0	0	491	550	
5	0	0	0	0	471	567	
6	0	0	0	0	491	540	
7	0	0	0	0	509	518	
8	0	0	0	0	511	522	
9	0	0	0	0	518	522	
10	0	0	0	0	519	536	
11	0	0	0	0	512	524	
12	0	0	0	0	492	511	
13	0	0	0	0	473	512	
14	0	0	0	0	486	507	
15	0	0	0	0	518	518	
0	0	0	0	0	516	514	
1	0	0	0	0	523	504	
2	0	0	0	0	519	492	
3	0	0	0	0	525	485	
4	0	0	0	0	481	499	
5	0	0	0	0	471	525	
6	0	0	0	0	485	508	
7	0	0	0	0	492	502	
8	0	0	0	0	511	492	
9	0	0	0	0	502	486	
10	0	0	0	0	524	492	
11	0	0	0	0	548	469	
12	0	0	0	0	567	477	
13	0	0	0	0	556	496	
14	0	0	0	0	502	524	
15	0	0	0	0	460	566	
0	0	0	0	0	475	595	
1	0	0	0	0	484	545	
2	0	0	0	0	487	518	
3	0	0	0	0	500	524	
4	0	0	0	0	525	518	
5	0	0	0	0	520	499	
6	0	0	0	0	492	480	
7	0	0	0	0	493	473	
8	0	0	0	0	504	465	
9	0	0	0	0	504	472	
10	0	0	0	0	509	498	
11	0	0	0	0	492	523	
12	0	0	0	0	505	542	
13	0	0	0	0	523	543	
14	0	0	0	0	526	535	
15	0	0	0	0	514	522	
0	0	0	0	0	508	525	
1	0	0	0	0	524	534	
2	0	0	0	0	496	526	
3	0	0	0	0	472	520	
4	0	0	0	0	490	511	
5	0	0	0	0	498	524	
6	0	0	0	0	490	529	
7	0	0	0	0	521	524	
8	0	0	0	0	521	524	
9	0	0	0	0	512	511	
10	0	0	0	0	504	480	
11	0	0	0	0	515	489	
12	0	0	0	0	520	508	
13	0	0	0	0	522	514	
14	0	0	0	0	525	502	
15	0	0	0	0	524	480	
0	0	0	0	0	495	468	
1	0	0	0	0	458	465	
2	0	0	0	0	476	489	
3	0	0	0	0	480	509	
4	0	0	0	0	480	520	
5	0	0	0	0	502	524	
6	0	0	0	0	512	526	
7	0	0	0	0	513	513	
8	0	0	0	0	507	526	
9	0	0	0	0	515	540	
10	0	0	0	0	512	520	
11	0	0	0	0	495	511	
12	0	0	0	0	496	528	
13	0	0	0	0	523	519	
14	0	0	0	0	527	497	
15	0	0	0	0	540	510	
0	0	0	0	0	521	523	
1	0	0	0	0	481	496	
2	0	0	0	0	486	492	
3	0	0	0	0	486	504	
4	0	0	0	0	479	505	
5	0	0	0	0	463	513	
6	0	0	0	0	496	531	
7	0	0	0	0	539	513	
8	0	0	0	0	543	476	
9	0	0	0	0	555	499	
10	0	0	0	0	526	507	
11	0	0	0	0	508	509	
12	0	0	0	0	482	502	
13	0	0	0	0	479	489	
14	0	0	0	0	503	508	
15	0	0	0	0	491	576	
0	0	0	0	0	490	586	
1	0	0	0	0	502	569	
2	0	0	0	0	509	532	
3	0	0	0	0	517	535	
4	0	0	0	0	510	537	
5	0	0	0	0	530	480	
6	0	0	0	0	539	483	
7	0	0	0	0	522	531	
8	0	0	0	0	499	502	
9	0	0	0	0	495	514	
10	0	0	0	0	491	498	
11	0	0	0	0	489	472	
12	0	0	0	0	489	467	
13	0	0	0	0	464	463	
14	0	0	0	0	483	464	
15	0	0	0	0	506	473	
0	0	0	0	0	504	475	
1	0	0	0	0	502	489	
2	0	0	0	0	506	551	
3	0	0	0	0	508	541	
4	0	0	0	0	515	527	
5	0	0	0	0	521	534	
6	0	0	0	0	521	556	
7	0	0	0	0	527	581	
8	0	0	0	0	519	595	
9	0	0	0	0	496	568	
10	0	0	0	0	518	535	
11	0	0	0	0	523	515	
12	0	0	0	0	496	498	
13	0	0	0	0	512	492	
14	0	0	0	0	515	496	
15	0	0	0	0	495	494	
0	0	0	0	0	473	489	
1	0	0	0	0	486	490	
2	0	0	0	0	506	496	
3	0	0	0	0	513	496	
4	0	0	0	0	509	508	
5	0	0	0	0	505	511	
6	0	0	0	0	510	510	
7	0	0	0	0	492	502	
8	0	0	0	0	491	492	
9	0	0	0	0	500	506	
10	0	0	0	0	512	517	
11	0	0	0	0	531	505	
12	0	0	0	0	511	495	
13	0	0	0	0	487	508	
14	0	0	0	0	484	517	
15	0	0	0	0	487	507	
0	0	0	0	0	492	503	
1	0	0	0	0	519	507	
2	0	0	0	0	545	501	
3	0	0	0	0	559	500	
4	0	0	0	0	536	511	
5	0	0	0	0	515	524	
6	0	0	0	0	513	520	
7	0	0	0	0	518	517	
8	0	0	0	0	477	508	
9	0	0	0	0	479	499	
10	0	0	0	0	498	506	
11	0	0	0	0	518	511	
12	0	0	0	0	494	513	
13	0	0	0	0	468	516	
14	0	0	0	0	489	516	
15	0	0	0	0	516	509	
0	0	0	0	0	493	493	
1	0	0	0	0	474	486	
2	0	0	0	0	494	495	
3	0	0	0	0	495	507	
4	0	0	0	0	498	510	
5	0	0	0	0	505	501	
6	0	0	0	0	510	522	
7	0	0	0	0	510	564	
8	0	0	0	0	511	536	
9	0	0	0	0	508	516	
10	0	0	0	0	517	505	
11	0	0	0	0	529	521	
12	0	0	0	0	527	553	
13	0	0	0	0	523	594	
14	0	0	0	0	520	550	
15	0	0	0	0	507	520	
0	0	0	0	0	490	494	
1	0	0	0	0	484	496	
2	0	0	0	0	489	512	
3	0	0	0	0	497	518	
4	0	0	0	0	487	491	
5	0	0	0	0	505	490	
6	0	0	0	0	515	502	
7	0	0	0	0	511	488	
8	0	0	0	0	508	483	
9	0	0	0	0	511	512	
10	0	0	0	0	513	531	
11	0	0	0	0	512	518	
12	0	0	0	0	506	507	
13	0	0	0	0	506	502	
14	0	0	0	0	505	510	
15	0	0	0	0	508	513	
0	0	0	0	0	507	510	
1	0	0	0	0	506	500	
2	0	0	0	0	501	496	
3	0	0	0	0	499	494	
4	0	0	0	0	500	500	
5	0	0	0	0	506	513	
6	0	0	0	0	513	516	
7	0	0	0	0	513	508	
8	0	0	0	0	521	514	
9	0	0	0	0	540	519	
10	0	0	0	0	543	512	
11	0	0	0	0	527	509	
12	0	0	0	0	489	518	
13	0	0	0	0	468	527	
14	0	0	0	0	476	519	
15	0	0	0	0	478	523	
0	0	0	0	0	478	520	
1	0	0	0	0	511	511	
2	0	0	0	0	513	485	
3	0	0	0	0	463	493	
4	0	0	0	0	460	512	
5	0	0	0	0	492	513	
6	0	0	0	0	508	496	
7	0	0	0	0	486	504	
8	0	0	0	0	528	506	
9	0	0	0	0	571	522	
10	0	0	0	0	550	549	
11	0	0	0	0	523	539	
12	0	0	0	0	520	512	
13	0	0	0	0	497	499	
14	0	0	0	0	461	479	
15	0	0	0	0	479	493	
0	0	0	0	0	502	525	
1	0	0	0	0	510	524	
2	0	0	0	0	517	519	
3	0	0	0	0	520	517	
4	0	0	0	0	513	514	
5	0	0	0	0	519	504	
6	0	0	0	0	535	520	
7	0	0	0	0	522	512	
8	0	0	0	0	503	486	
9	0	0	0	0	486	494	
10	0	0	0	0	495	519	
11	0	0	0	0	517	502	
12	0	0	0	0	513	492	
13	0	0	0	0	534	489	
14	0	0	0	0	527	489	
15	0	0	0	0	543	489	
0	0	0	0	0	506	514	
1	0	0	0	0	446	553	
2	0	0	0	0	452	577	
3	0	0	0	0	475	577	
4	0	0	0	0	477	535	
5	0	0	0	0	472	487	
6	0	0	0	0	476	499	
7	0	0	0	0	503	553	
8	0	0	0	0	510	550	
9	0	0	0	0	511	525	
10	0	0	0	0	514	486	
11	0	0	0	0	510	496	
12	0	0	0	0	513	510	
13	0	0	0	0	513	514	
14	0	0	0	0	514	513	
15	0	0	0	0	515	505	
0	0	0	0	0	518	530	
1	0	0	0	0	517	553	
2	0	0	0	0	515	528	
3	0	0	0	0	514	511	
4	0	0	0	0	504	476	
5	0	0	0	0	494	457	
6	0	0	0	0	506	465	
7	0	0	0	0	525	475	
8	0	0	0	0	526	486	
9	0	0	0	0	539	496	
10	0	0	0	0	528	492	
11	0	0	0	0	529	478	
12	0	0	0	0	513	483	
13	0	0	0	0	398	511	
14	0	0	0	0	429	515	
15	0	0	0	0	485	515	
0	0	0	0	0	505	543	
1	0	0	0	0	505	552	
2	0	0	0	0	518	527	
3	0	0	0	0	535	554	
4	0	0	0	0	525	567	
5	0	0	0	0	517	525	
6	0	0	0	0	511	516	
7	0	0	0	0	508	521	
8	0	0	0	0	495	521	
9	0	0	0	0	500	519	
10	0	0	0	0	497	501	
11	0	0	0	0	492	498	
12	0	0	0	0	499	497	
13	0	0	0	0	507	500	
14	0	0	0	0	511	505	
15	0	0	0	0	527	493	
0	0	0	0	0	524	511	
1	0	0	0	0	526	531	
2	0	0	0	0	507	503	
3	0	0	0	0	534	504	
4	0	0	0	0	547	511	
5	0	0	0	0	609	477	
6	0	0	0	0	579	497	
7	0	0	0	0	577	531	
8	0	0	0	0	502	513	
9	0	0	0	0	417	478	
10	0	0	0	0	449	459	
11	0	0	0	0	432	504	
12	0	0	0	0	424	515	
13	0	0	0	0	406	509	
14	0	0	0	0	465	506	
15	0	0	0	0	499	526	
0	0	0	0	0	487	553	
1	0	0	0	0	458	549	
2	0	0	0	0	469	542	
3	0	0	0	0	501	512	
4	0	0	0	0	519	507	
5	0	0	0	0	529	526	
6	0	0	0	0	531	552	
7	0	0	0	0	531	523	
8	0	0	0	0	531	509	
9	0	0	0	0	520	496	
10	0	0	0	0	507	487	
11	0	0	0	0	502	461	
12	0	0	0	0	519	446	
13	0	0	0	0	520	499	
14	0	0	0	0	504	524	
15	0	0	0	0	517	505	
0	0	0	0	0	524	465	
1	0	0	0	0	536	475	
2	0	0	0	0	519	595	
3	0	0	0	0	521	636	
4	0	0	0	0	524	593	
5	0	0	0	0	460	561	
6	0	0	0	0	483	526	
7	0	0	0	0	510	515	
8	0	0	0	0	496	496	
9	0	0	0	0	504	506	
10	0	0	0	0	533	529	
11	0	0	0	0	544	521	
12	0	0	0	0	530	499	
13	0	0	0	0	519	497	
14	0	0	0	0	477	492	
15	0	0	0	0	460	475	
0	0	0	0	0	492	483	
1	0	0	0	0	508	486	
2	0	0	0	0	491	492	
3	0	0	0	0	479	504	
4	0	0	0	0	490	504	
5	0	0	0	0	511	508	
6	0	0	0	0	512	521	
7	0	0	0	0	478	528	
8	0	0	0	0	496	518	
9	0	0	0	0	522	496	
10	0	0	0	0	502	488	
11	0	0	0	0	527	492	
12	0	0	0	0	551	501	
13	0	0	0	0	527	506	
14	0	0	0	0	531	509	
15	0	0	0	0	537	511	
0	0	0	0	0	516	523	
1	0	0	0	0	491	517	
2	0	0	0	0	440	505	
3	0	0	0	0	453	492	
4	0	0	0	0	480	509	
5	0	0	0	0	511	538	
6	0	0	0	0	514	542	
7	0	0	0	0	508	533	
8	0	0	0	0	500	516	
9	0	0	0	0	492	508	
10	0	0	0	0	505	504	
11	0	0	0	0	516	500	
12	0	0	0	0	517	495	
13	0	0	0	0	519	502	
14	0	0	0	0	516	495	
15	0	0	0	0	505	486	
0	0	0	0	0	502	495	
1	0	0	0	0	491	503	
2	0	0	0	0	507	483	
3	0	0	0	0	526	493	
4	0	0	0	0	519	526	
5	0	0	0	0	521	538	
6	0	0	0	0	526	537	
7	0	0	0	0	495	567	
8	0	0	0	0	474	555	
9	0	0	0	0	490	545	
10	0	0	0	0	491	519	
11	0	0	0	0	495	505	
12	0	0	0	0	499	541	
13	0	0	0	0	503	521	
14	0	0	0	0	506	512	
15	0	0	0	0	500	523	
0	0	0	0	0	508	517	
1	0	0	0	0	527	518	
2	0	0	0	0	524	503	
3	0	0	0	0	521	492	
4	0	0	0	0	527	490	
5	0	0	0	0	527	489	
6	0	0	0	0	507	487	
7	0	0	0	0	501	492	
8	0	0	0	0	502	505	
9	0	0	0	0	516	497	
10	0	0	0	0	505	506	
11	0	0	0	0	495	511	
12	0	0	0	0	476	515	
13	0	0	0	0	448	526	
14	0	0	0	0	474	546	
15	0	0	0	0	503	524	
0	0	0	0	0	518	521	
1	0	0	0	0	524	520	
2	0	0	0	0	521	504	
3	0	0	0	0	499	478	
4	0	0	0	0	497	497	
5	0	0	0	0	481	507	
6	0	0	0	0	521	492	
7	0	0	0	0	523	479	
8	0	0	0	0	525	477	
9	0	0	0	0	522	468	
10	0	0	0	0	505	485	
11	0	0	0	0	501	508	
12	0	0	0	0	535	521	
13	0	0	0	0	507	556	
14	0	0	0	0	471	579	
15	0	0	0	0	481	584	
0	0	0	0	0	499	600	
1	0	0	0	0	504	539	
2	0	0	0	0	504	510	
3	0	0	0	0	504	504	
4	0	0	0	0	508	503	
5	0	0	0	0	523	493	
6	0	0	0	0	529	481	
7	0	0	0	0	521	480	
8	0	0	0	0	491	480	
9	0	0	0	0	493	481	
10	0	0	0	0	480	479	
11	0	0	0	0	480	492	
12	0	0	0	0	493	505	
13	0	0	0	0	521	548	
14	0	0	0	0	525	548	
15	0	0	0	0	506	537	
0	0	0	0	0	513	547	
1	0	0	0	0	517	536	
2	0	0	0	0	507	529	
3	0	0	0	0	507	518	
4	0	0	0	0	493	507	
5	0	0	0	0	491	487	
6	0	0	0	0	480	477	
7	0	0	0	0	492	490	
8	0	0	0	0	513	484	
9	0	0	0	0	528	488	
10	0	0	0	0	553	520	
11	0	0	0	0	519	543	
12	0	0	0	0	492	564	
13	0	0	0	0	499	542	
14	0	0	0	0	510	497	
15	0	0	0	0	512	488	
0	0	0	0	0	505	483	
1	0	0	0	0	496	494	
2	0	0	0	0	496	500	
3	0	0	0	0	492	500	
4	0	0	0	0	492	508	
5	0	0	0	0	516	532	
6	0	0	0	0	519	509	
7	0	0	0	0	504	503	
8	0	0	0	0	497	515	
9	0	0	0	0	498	491	
10	0	0	0	0	503	490	
11	0	0	0	0	511	497	
12	0	0	0	0	515	502	
13	0	0	0	0	515	526	
14	0	0	0	0	481	546	
15	0	0	0	0	490	533	
0	0	0	0	0	518	544	
1	0	0	0	0	500	559	
2	0	0	0	0	516	537	
3	0	0	0	0	526	521	
4	0	0	0	0	543	503	
5	0	0	0	0	535	500	
6	0	0	0	0	525	495	
7	0	0	0	0	516	493	
8	0	0	0	0	450	504	
9	0	0	0	0	447	518	
10	0	0	0	0	483	518	
11	0	0	0	0	485	511	
12	0	0	0	0	509	513	
13	0	0	0	0	515	499	
14	0	0	0	0	509	492	
15	0	0	0	0	513	497	
0	0	0	0	0	511	508	
1	0	0	0	0	512	505	
2	0	0	0	0	508	507	
3	0	0	0	0	493	502	
4	0	0	0	0	493	492	
5	0	0	0	0	495	489	
6	0	0	0	0	513	486	
7	0	0	0	0	505	498	
8	0	0	0	0	504	509	
9	0	0	0	0	515	524	
10	0	0	0	0	518	524	
11	0	0	0	0	489	503	
12	0	0	0	0	491	511	
13	0	0	0	0	516	563	
14	0	0	0	0	522	572	
15	0	0	0	0	517	540	
0	0	0	0	0	509	523	
1	0	0	0	0	516	506	
2	0	0	0	0	518	488	
3	0	0	0	0	508	496	
4	0	0	0	0	496	530	
5	0	0	0	0	487	522	
6	0	0	0	0	476	507	
7	0	0	0	0	484	508	
8	0	0	0	0	503	498	
9	0	0	0	0	531	485	
10	0	0	0	0	513	492	
11	0	0	0	0	507	502	
12	0	0	0	0	510	495	
13	0	0	0	0	512	493	
14	0	0	0	0	509	494	
15	0	0	0	0	506	515	
0	0	0	0	0	503	575	
1	0	0	0	0	508	569	
2	0	0	0	0	537	537	
3	0	0	0	0	543	516	
4	0	0	0	0	475	497	
5	0	0	0	0	471	536	
6	0	0	0	0	482	536	
7	0	0	0	0	504	510	
8	0	0	0	0	524	487	
9	0	0	0	0	539	476	
10	0	0	0	0	544	471	
11	0	0	0	0	540	486	
12	0	0	0	0	511	527	
13	0	0	0	0	443	503	
14	0	0	0	0	425	502	
15	0	0	0	0	476	556	
0	0	0	0	0	502	572	
1	0	0	0	0	498	526	
2	0	0	0	0	534	511	
3	0	0	0	0	547	520	
4	0	0	0	0	497	527	
5	0	0	0	0	487	529	
6	0	0	0	0	492	504	
7	0	0	0	0	496	478	
8	0	0	0	0	499	478	
9	0	0	0	0	502	484	
10	0	0	0	0	507	486	
11	0	0	0	0	510	487	
12	0	0	0	0	506	493	
13	0	0	0	0	510	492	
14	0	0	0	0	519	507	
15	0	0	0	0	523	512	
0	0	0	0	0	524	524	
1	0	0	0	0	526	540	
2	0	0	0	0	528	537	
3	0	0	0	0	518	521	
4	0	0	0	0	476	500	
5	0	0	0	0	464	498	
6	0	0	0	0	502	524	
7	0	0	0	0	502	539	
8	0	0	0	0	500	520	
9	0	0	0	0	499	527	
10	0	0	0	0	515	525	
11	0	0	0	0	501	513	
12	0	0	0	0	486	516	
13	0	0	0	0	496	509	
14	0	0	0	0	499	499	
15	0	0	0	0	515	494	
0	0	0	0	0	510	484	
1	0	0	0	0	505	482	
2	0	0	0	0	512	494	
3	0	0	0	0	511	489	
4	0	0	0	0	507	483	
5	0	0	0	0	504	472	
6	0	0	0	0	511	500	
7	0	0	0	0	504	524	
8	0	0	0	0	502	528	
9	0	0	0	0	516	546	
10	0	0	0	0	521	539	
11	0	0	0	0	512	566	
12	0	0	0	0	528	566	
13	0	0	0	0	531	591	
14	0	0	0	0	499	555	
15	0	0	0	0	468	542	
0	0	0	0	0	477	512	
1	0	0	0	0	499	496	
2	0	0	0	0	521	479	
3	0	0	0	0	513	462	
4	0	0	0	0	507	441	
5	0	0	0	0	497	447	
6	0	0	0	0	491	457	
7	0	0	0	0	500	467	
8	0	0	0	0	519	468	
9	0	0	0	0	512	487	
10	0	0	0	0	519	516	
11	0	0	0	0	523	598	
12	0	0	0	0	484	628	
13	0	0	0	0	465	594	
14	0	0	0	0	496	544	
15	0	0	0	0	499	520	
0	0	0	0	0	504	492	
1	0	0	0	0	510	480	
2	0	0	0	0	508	489	
3	0	0	0	0	509	505	
4	0	0	0	0	500	525	
5	0	0	0	0	529	516	
6	0	0	0	0	546	524	
7	0	0	0	0	523	516	
8	0	0	0	0	514	516	
9	0	0	0	0	487	518	
10	0	0	0	0	456	490	
11	0	0	0	0	495	471	
12	0	0	0	0	513	476	
13	0	0	0	0	529	498	
14	0	0	0	0	498	512	
15	0	0	0	0	503	504	
0	0	0	0	0	511	491	
1	0	0	0	0	519	504	
2	0	0	0	0	515	495	
3	0	0	0	0	531	512	
4	0	0	0	0	521	500	
5	0	0	0	0	462	471	
6	0	0	0	0	458	479	
7	0	0	0	0	484	488	
8	0	0	0	0	504	535	
9	0	0	0	0	508	574	
10	0	0	0	0	505	598	
11	0	0	0	0	507	545	
12	0	0	0	0	515	497	
13	0	0	0	0	518	474	
14	0	0	0	0	510	500	
15	0	0	0	0	508	543	
0	0	0	0	0	504	539	
1	0	0	0	0	508	510	
2	0	0	0	0	496	514	
3	0	0	0	0	481	515	
4	0	0	0	0	506	559	
5	0	0	0	0	524	558	
6	0	0	0	0	512	539	
7	0	0	0	0	505	511	
8	0	0	0	0	516	499	
9	0	0	0	0	508	528	
10	0	0	0	0	478	521	
11	0	0	0	0	495	504	
12	0	0	0	0	507	504	
13	0	0	0	0	505	499	
14	0	0	0	0	512	487	
15	0	0	0	0	519	487	
0	0	0	0	0	518	488	
1	0	0	0	0	504	486	
2	0	0	0	0	510	496	
3	0	0	0	0	519	498	
4	0	0	0	0	518	499	
5	0	0	0	0	510	523	
6	0	0	0	0	508	527	
7	0	0	0	0	512	513	
8	0	0	0	0	522	495	
9	0	0	0	0	499	477	
10	0	0	0	0	476	487	
11	0	0	0	0	500	498	
12	0	0	0	0	496	510	
13	0	0	0	0	475	499	
14	0	0	0	0	479	521	
15	0	0	0	0	493	559	
0	0	0	0	0	508	556	
1	0	0	0	0	510	548	
2	0	0	0	0	517	531	
3	0	0	0	0	535	524	
4	0	0	0	0	539	507	
5	0	0	0	0	531	503	
6	0	0	0	0	519	502	
7	0	0	0	0	500	507	
8	0	0	0	0	499	499	
9	0	0	0	0	504	496	
10	0	0	0	0	496	511	
11	0	0	0	0	504	516	
12	0	0	0	0	497	511	
13	0	0	0	0	486	514	
14	0	0	0	0	489	512	
15	0	0	0	0	504	513	
0	0	0	0	0	516	504	
1	0	0	0	0	470	476	
2	0	0	0	0	519	477	
3	0	0	0	0	513	493	
4	0	0	0	0	480	493	
5	0	0	0	0	492	489	
6	0	0	0	0	518	496	
7	0	0	0	0	513	527	
8	0	0	0	0	511	531	
9	0	0	0	0	504	541	
10	0	0	0	0	509	542	
11	0	0	0	0	511	513	
12	0	0	0	0	503	498	
13	0	0	0	0	501	523	
14	0	0	0	0	518	534	
15	0	0	0	0	534	548	
0	0	0	0	0	503	547	
1	0	0	0	0	491	524	
2	0	0	0	0	500	516	
3	0	0	0	0	518	515	
4	0	0	0	0	536	513	
5	0	0	0	0	528	508	
6	0	0	0	0	484	507	
7	0	0	0	0	461	509	
8	0	0	0	0	495	494	
9	0	0	0	0	508	487	
10	0	0	0	0	496	484	
11	0	0	0	0	496	513	
12	0	0	0	0	502	513	
13	0	0	0	0	515	531	
14	0	0	0	0	518	514	
15	0	0	0	0	526	529	
0	0	0	0	0	521	524	
1	0	0	0	0	504	519	
2	0	0	0	0	483	516	
3	0	0	0	0	472	522	
4	0	0	0	0	496	516	
5	0	0	0	0	503	503	
6	0	0	0	0	497	494	
7	0	0	0	0	506	496	
8	0	0	0	0	521	499	
9	0	0	0	0	523	507	
10	0	0	0	0	518	496	
11	0	0	0	0	515	487	
12	0	0	0	0	507	490	
13	0	0	0	0	499	499	
14	0	0	0	0	503	512	
15	0	0	0	0	513	513	
0	0	0	0	0	512	501	
1	0	0	0	0	513	502	
2	0	0	0	0	512	496	
3	0	0	0	0	500	491	
4	0	0	0	0	508	505	
5	0	0	0	0	490	551	
6	0	0	0	0	478	536	
7	0	0	0	0	477	528	
8	0	0	0	0	504	514	
9	0	0	0	0	510	500	
10	0	0	0	0	518	523	
11	0	0	0	0	572	542	
12	0	0	0	0	543	510	
13	0	0	0	0	498	511	
14	0	0	0	0	495	521	
15	0	0	0	0	496	536	
0	0	0	0	0	468	544	
1	0	0	0	0	480	515	
2	0	0	0	0	497	490	
3	0	0	0	0	511	514	
