# OpenSignals Text File Format. Version 1
# {"98:D3:71:FE:38:C0": {"position": 0, "device": "bitalino_rev", "device name": "98:D3:71:FE:38:C0", "device connection": "BTH98:D3:71:FE:38:C0", "sampling rate": 1000, "resolution": [4, 1, 1, 1, 1, 10, 10], "firmware version": 1282, "comments": "", "keywords": "", "mode": 0, "sync interval": 2, "date": "2026-6-12", "time": "12:50:10.658", "channels": [1, 2], "sensor": ["EMGBITREV", "EMGBITREV"], "label": ["A1", "A2"], "column": ["nSeq", "I1", "I2", "O1", "O2", "A1", "A2"], "special": [{}, {}], "digital IO": [0, 0, 1, 1]}}
# EndOfHeader
0	0	0	0	0	507	515	
1	0	0	0	0	504	506	
2	0	0	0	0	507	507	
3	0	0	0	0	504	506	
4	0	0	0	0	503	507	
5	0	0	0	0	505	509	
6	0	0	0	0	505	508	
7	0	0	0	0	507	508	
8	0	0	0	0	508	508	
9	0	0	0	0	506	510	
10	0	0	0	0	504	511	
11	0	0	0	0	506	511	
12	0	0	0	0	505	517	
13	0	0	0	0	507	517	
14	0	0	0	0	507	509	
15	0	0	0	0	507	509	
0	0	0	0	0	507	511	
1	0	0	0	0	505	513	
2	0	0	0	0	505	512	
3	0	0	0	0	505	508	
4	0	0	0	0	507	508	
5	0	0	0	0	507	512	
6	0	0	0	0	505	507	
7	0	0	0	0	503	510	
8	0	0	0	0	505	513	
9	0	0	0	0	505	512	
10	0	0	0	0	505	516	
11	0	0	0	0	506	517	
12	0	0	0	0	504	518	
13	0	0	0	0	504	514	
14	0	0	0	0	504	512	
15	0	0	0	0	504	512	
0	0	0	0	0	505	510	
1	0	0	0	0	505	512	
2	0	0	0	0	505	510	
3	0	0	0	0	508	508	
4	0	0	0	0	504	511	
5	0	0	0	0	504	510	
6	0	0	0	0	504	511	
7	0	0	0	0	506	510	
8	0	0	0	0	505	512	
9	0	0	0	0	504	510	
10	0	0	0	0	508	509	
11	0	0	0	0	507	508	
12	0	0	0	0	507	510	
13	0	0	0	0	505	511	
14	0	0	0	0	505	512	
15	0	0	0	0	505	512	
0	0	0	0	0	504	512	
1	0	0	0	0	505	514	
2	0	0	0	0	507	517	
3	0	0	0	0	508	516	
4	0	0	0	0	505	514	
5	0	0	0	0	504	516	
6	0	0	0	0	505	518	
7	0	0	0	0	504	516	
8	0	0	0	0	505	512	
9	0	0	0	0	505	510	
10	0	0	0	0	505	510	
11	0	0	0	0	504	509	
12	0	0	0	0	507	508	
13	0	0	0	0	505	509	
14	0	0	0	0	505	512	
15	0	0	0	0	507	514	
0	0	0	0	0	507	512	
1	0	0	0	0	506	511	
2	0	0	0	0	506	511	
3	0	0	0	0	505	511	
4	0	0	0	0	504	511	
5	0	0	0	0	503	511	
6	0	0	0	0	503	511	
7	0	0	0	0	505	514	
8	0	0	0	0	505	512	
9	0	0	0	0	506	511	
10	0	0	0	0	505	512	
11	0	0	0	0	508	512	
12	0	0	0	0	506	513	
13	0	0	0	0	507	512	
14	0	0	0	0	504	512	
15	0	0	0	0	505	510	
0	0	0	0	0	506	510	
1	0	0	0	0	505	510	
2	0	0	0	0	501	512	
3	0	0	0	0	504	511	
4	0	0	0	0	504	512	
5	0	0	0	0	505	511	
6	0	0	0	0	505	511	
7	0	0	0	0	508	512	
8	0	0	0	0	507	513	
9	0	0	0	0	504	512	
10	0	0	0	0	505	512	
11	0	0	0	0	507	509	
12	0	0	0	0	505	504	
13	0	0	0	0	505	504	
14	0	0	0	0	505	504	
15	0	0	0	0	505	508	
0	0	0	0	0	506	511	
1	0	0	0	0	505	515	
2	0	0	0	0	506	519	
3	0	0	0	0	505	526	
4	0	0	0	0	507	531	
5	0	0	0	0	508	535	
6	0	0	0	0	506	518	
7	0	0	0	0	504	508	
8	0	0	0	0	505	506	
9	0	0	0	0	504	505	
10	0	0	0	0	505	508	
11	0	0	0	0	504	509	
12	0	0	0	0	505	508	
13	0	0	0	0	507	511	
14	0	0	0	0	506	509	
15	0	0	0	0	505	507	
0	0	0	0	0	504	508	
1	0	0	0	0	504	512	
2	0	0	0	0	505	511	
3	0	0	0	0	505	508	
4	0	0	0	0	505	511	
5	0	0	0	0	505	509	
6	0	0	0	0	505	511	
7	0	0	0	0	506	513	
8	0	0	0	0	507	510	
9	0	0	0	0	505	511	
10	0	0	0	0	506	513	
11	0	0	0	0	505	512	
12	0	0	0	0	507	511	
13	0	0	0	0	505	513	
14	0	0	0	0	506	513	
15	0	0	0	0	504	513	
0	0	0	0	0	504	513	
1	0	0	0	0	504	513	
2	0	0	0	0	504	512	
3	0	0	0	0	504	511	
4	0	0	0	0	505	512	
5	0	0	0	0	506	510	
6	0	0	0	0	505	511	
7	0	0	0	0	504	510	
8	0	0	0	0	504	511	
9	0	0	0	0	504	511	
10	0	0	0	0	506	511	
11	0	0	0	0	508	512	
12	0	0	0	0	506	513	
13	0	0	0	0	506	510	
14	0	0	0	0	504	512	
15	0	0	0	0	507	513	
0	0	0	0	0	504	512	
1	0	0	0	0	505	513	
2	0	0	0	0	505	514	
3	0	0	0	0	506	510	
4	0	0	0	0	504	510	
5	0	0	0	0	504	512	
6	0	0	0	0	506	512	
7	0	0	0	0	505	511	
8	0	0	0	0	505	510	
9	0	0	0	0	506	512	
10	0	0	0	0	504	512	
11	0	0	0	0	505	514	
12	0	0	0	0	504	515	
13	0	0	0	0	506	513	
14	0	0	0	0	504	513	
15	0	0	0	0	504	513	
0	0	0	0	0	508	510	
1	0	0	0	0	505	509	
2	0	0	0	0	506	511	
3	0	0	0	0	505	511	
4	0	0	0	0	504	511	
5	0	0	0	0	508	510	
6	0	0	0	0	504	511	
7	0	0	0	0	505	513	
8	0	0	0	0	508	511	
9	0	0	0	0	507	511	
10	0	0	0	0	506	513	
11	0	0	0	0	505	512	
12	0	0	0	0	506	513	
13	0	0	0	0	505	512	
14	0	0	0	0	504	512	
15	0	0	0	0	507	513	
0	0	0	0	0	505	511	
1	0	0	0	0	506	511	
2	0	0	0	0	506	513	
3	0	0	0	0	505	512	
4	0	0	0	0	504	510	
5	0	0	0	0	504	512	
6	0	0	0	0	504	513	
7	0	0	0	0	506	511	
8	0	0	0	0	507	512	
9	0	0	0	0	505	512	
10	0	0	0	0	504	512	
11	0	0	0	0	505	513	
12	0	0	0	0	503	512	
13	0	0	0	0	505	511	
14	0	0	0	0	505	512	
15	0	0	0	0	504	507	
0	0	0	0	0	504	509	
1	0	0	0	0	503	511	
2	0	0	0	0	504	513	
3	0	0	0	0	507	514	
4	0	0	0	0	507	512	
5	0	0	0	0	506	512	
6	0	0	0	0	506	511	
7	0	0	0	0	505	511	
8	0	0	0	0	505	511	
9	0	0	0	0	506	511	
10	0	0	0	0	505	511	
11	0	0	0	0	505	512	
12	0	0	0	0	503	513	
13	0	0	0	0	506	511	
14	0	0	0	0	504	511	
15	0	0	0	0	504	513	
0	0	0	0	0	505	512	
1	0	0	0	0	505	510	
2	0	0	0	0	507	512	
3	0	0	0	0	506	511	
4	0	0	0	0	507	512	
5	0	0	0	0	506	512	
6	0	0	0	0	505	511	
7	0	0	0	0	506	510	
8	0	0	0	0	506	511	
9	0	0	0	0	507	512	
10	0	0	0	0	505	512	
11	0	0	0	0	504	513	
12	0	0	0	0	504	512	
13	0	0	0	0	504	512	
14	0	0	0	0	508	510	
15	0	0	0	0	506	512	
0	0	0	0	0	505	512	
1	0	0	0	0	505	511	
2	0	0	0	0	504	513	
3	0	0	0	0	504	512	
4	0	0	0	0	505	512	
5	0	0	0	0	507	513	
6	0	0	0	0	505	513	
7	0	0	0	0	504	511	
8	0	0	0	0	505	512	
9	0	0	0	0	507	511	
10	0	0	0	0	505	511	
11	0	0	0	0	507	510	
12	0	0	0	0	507	512	
13	0	0	0	0	503	512	
14	0	0	0	0	505	512	
15	0	0	0	0	503	514	
0	0	0	0	0	505	512	
1	0	0	0	0	505	513	
2	0	0	0	0	505	511	
3	0	0	0	0	506	511	
4	0	0	0	0	505	513	
5	0	0	0	0	504	511	
6	0	0	0	0	505	511	
7	0	0	0	0	505	512	
8	0	0	0	0	505	513	
9	0	0	0	0	505	513	
10	0	0	0	0	504	510	
11	0	0	0	0	504	512	
12	0	0	0	0	505	512	
13	0	0	0	0	508	511	
14	0	0	0	0	505	510	
15	0	0	0	0	507	510	
0	0	0	0	0	507	513	
1	0	0	0	0	508	511	
2	0	0	0	0	506	511	
3	0	0	0	0	504	512	
4	0	0	0	0	505	512	
5	0	0	0	0	505	513	
6	0	0	0	0	504	511	
7	0	0	0	0	504	510	
8	0	0	0	0	506	511	
9	0	0	0	0	507	512	
10	0	0	0	0	507	508	
11	0	0	0	0	506	511	
12	0	0	0	0	504	512	
13	0	0	0	0	506	511	
14	0	0	0	0	507	512	
15	0	0	0	0	506	514	
0	0	0	0	0	503	512	
1	0	0	0	0	505	514	
2	0	0	0	0	505	513	
3	0	0	0	0	505	512	
4	0	0	0	0	505	512	
5	0	0	0	0	505	511	
6	0	0	0	0	505	511	
7	0	0	0	0	505	511	
8	0	0	0	0	506	512	
9	0	0	0	0	504	513	
10	0	0	0	0	504	511	
11	0	0	0	0	504	511	
12	0	0	0	0	505	512	
13	0	0	0	0	504	510	
14	0	0	0	0	505	512	
15	0	0	0	0	505	512	
0	0	0	0	0	505	512	
1	0	0	0	0	507	512	
2	0	0	0	0	507	511	
3	0	0	0	0	506	511	
4	0	0	0	0	506	510	
5	0	0	0	0	505	511	
6	0	0	0	0	505	513	
7	0	0	0	0	506	512	
8	0	0	0	0	507	513	
9	0	0	0	0	505	513	
10	0	0	0	0	507	511	
11	0	0	0	0	505	511	
12	0	0	0	0	504	513	
13	0	0	0	0	507	511	
14	0	0	0	0	506	512	
15	0	0	0	0	507	512	
0	0	0	0	0	507	511	
1	0	0	0	0	505	512	
2	0	0	0	0	505	510	
3	0	0	0	0	503	513	
4	0	0	0	0	505	510	
5	0	0	0	0	504	512	
6	0	0	0	0	505	512	
7	0	0	0	0	505	511	
8	0	0	0	0	504	511	
9	0	0	0	0	507	512	
10	0	0	0	0	505	513	
11	0	0	0	0	505	512	
12	0	0	0	0	505	512	
13	0	0	0	0	506	512	
14	0	0	0	0	507	511	
15	0	0	0	0	506	513	
0	0	0	0	0	504	512	
1	0	0	0	0	505	513	
2	0	0	0	0	506	510	
3	0	0	0	0	509	512	
4	0	0	0	0	505	512	
5	0	0	0	0	505	511	
6	0	0	0	0	505	512	
7	0	0	0	0	506	511	
8	0	0	0	0	505	513	
9	0	0	0	0	505	512	
10	0	0	0	0	506	512	
11	0	0	0	0	506	510	
12	0	0	0	0	506	512	
13	0	0	0	0	506	511	
14	0	0	0	0	504	512	
15	0	0	0	0	505	511	
0	0	0	0	0	504	513	
1	0	0	0	0	505	511	
2	0	0	0	0	506	512	
3	0	0	0	0	508	510	
4	0	0	0	0	508	511	
5	0	0	0	0	506	512	
6	0	0	0	0	504	510	
7	0	0	0	0	504	510	
8	0	0	0	0	506	511	
9	0	0	0	0	505	512	
10	0	0	0	0	505	512	
11	0	0	0	0	504	512	
12	0	0	0	0	505	511	
13	0	0	0	0	506	512	
14	0	0	0	0	506	513	
15	0	0	0	0	507	512	
0	0	0	0	0	507	512	
1	0	0	0	0	505	512	
2	0	0	0	0	504	513	
3	0	0	0	0	505	513	
4	0	0	0	0	506	513	
5	0	0	0	0	503	513	
6	0	0	0	0	503	513	
7	0	0	0	0	505	513	
8	0	0	0	0	505	511	
9	0	0	0	0	505	512	
10	0	0	0	0	505	511	
11	0	0	0	0	506	511	
12	0	0	0	0	505	512	
13	0	0	0	0	504	511	
14	0	0	0	0	504	510	
15	0	0	0	0	505	511	
0	0	0	0	0	504	512	
1	0	0	0	0	504	511	
2	0	0	0	0	506	511	
3	0	0	0	0	505	510	
4	0	0	0	0	506	513	
5	0	0	0	0	505	513	
6	0	0	0	0	504	512	
7	0	0	0	0	503	512	
8	0	0	0	0	506	512	
9	0	0	0	0	505	512	
10	0	0	0	0	505	511	
11	0	0	0	0	506	512	
12	0	0	0	0	505	512	
13	0	0	0	0	507	512	
14	0	0	0	0	505	512	
15	0	0	0	0	505	512	
0	0	0	0	0	504	512	
1	0	0	0	0	505	511	
2	0	0	0	0	506	513	
3	0	0	0	0	507	512	
4	0	0	0	0	505	512	
5	0	0	0	0	503	510	
6	0	0	0	0	505	512	
7	0	0	0	0	507	513	
8	0	0	0	0	505	512	
9	0	0	0	0	506	511	
10	0	0	0	0	504	512	
11	0	0	0	0	506	512	
12	0	0	0	0	505	514	
13	0	0	0	0	505	512	
14	0	0	0	0	505	511	
15	0	0	0	0	505	512	
0	0	0	0	0	504	513	
1	0	0	0	0	504	511	
2	0	0	0	0	505	512	
3	0	0	0	0	507	510	
4	0	0	0	0	505	510	
5	0	0	0	0	505	511	
6	0	0	0	0	505	511	
7	0	0	0	0	507	510	
8	0	0	0	0	507	512	
9	0	0	0	0	506	512	
10	0	0	0	0	505	512	
11	0	0	0	0	505	514	
12	0	0	0	0	505	512	
13	0	0	0	0	504	511	
14	0	0	0	0	504	512	
15	0	0	0	0	507	509	
0	0	0	0	0	504	512	
1	0	0	0	0	504	511	
2	0	0	0	0	507	512	
3	0	0	0	0	505	511	
4	0	0	0	0	507	511	
5	0	0	0	0	504	512	
6	0	0	0	0	506	514	
7	0	0	0	0	505	514	
8	0	0	0	0	504	511	
9	0	0	0	0	507	510	
10	0	0	0	0	507	510	
11	0	0	0	0	504	512	
12	0	0	0	0	505	514	
13	0	0	0	0	508	512	
14	0	0	0	0	506	512	
15	0	0	0	0	507	511	
0	0	0	0	0	504	512	
1	0	0	0	0	505	511	
2	0	0	0	0	505	510	
3	0	0	0	0	504	512	
4	0	0	0	0	507	513	
5	0	0	0	0	505	513	
6	0	0	0	0	506	512	
7	0	0	0	0	504	513	
8	0	0	0	0	506	513	
9	0	0	0	0	505	513	
10	0	0	0	0	505	511	
11	0	0	0	0	506	511	
12	0	0	0	0	505	514	
13	0	0	0	0	504	513	
14	0	0	0	0	505	510	
15	0	0	0	0	506	510	
0	0	0	0	0	504	510	
1	0	0	0	0	505	511	
2	0	0	0	0	504	512	
3	0	0	0	0	505	512	
4	0	0	0	0	506	514	
5	0	0	0	0	505	513	
6	0	0	0	0	507	512	
7	0	0	0	0	508	510	
8	0	0	0	0	505	513	
9	0	0	0	0	505	513	
10	0	0	0	0	506	510	
11	0	0	0	0	505	510	
12	0	0	0	0	504	513	
13	0	0	0	0	506	511	
14	0	0	0	0	507	513	
15	0	0	0	0	504	511	
0	0	0	0	0	504	512	
1	0	0	0	0	505	511	
2	0	0	0	0	505	512	
3	0	0	0	0	503	512	
4	0	0	0	0	507	512	
5	0	0	0	0	505	514	
6	0	0	0	0	504	510	
7	0	0	0	0	507	510	
8	0	0	0	0	507	512	
9	0	0	0	0	505	511	
10	0	0	0	0	505	512	
11	0	0	0	0	504	511	
12	0	0	0	0	504	511	
13	0	0	0	0	508	510	
14	0	0	0	0	505	511	
15	0	0	0	0	507	512	
0	0	0	0	0	504	511	
1	0	0	0	0	505	512	
2	0	0	0	0	504	511	
3	0	0	0	0	504	512	
4	0	0	0	0	504	511	
5	0	0	0	0	505	512	
6	0	0	0	0	503	511	
7	0	0	0	0	504	510	
8	0	0	0	0	505	512	
9	0	0	0	0	505	514	
10	0	0	0	0	507	513	
11	0	0	0	0	507	512	
12	0	0	0	0	505	511	
13	0	0	0	0	505	512	
14	0	0	0	0	505	513	
15	0	0	0	0	507	513	
0	0	0	0	0	506	513	
1	0	0	0	0	504	512	
2	0	0	0	0	505	512	
3	0	0	0	0	505	512	
4	0	0	0	0	505	511	
5	0	0	0	0	507	512	
6	0	0	0	0	505	512	
7	0	0	0	0	505	511	
8	0	0	0	0	505	515	
9	0	0	0	0	508	512	
10	0	0	0	0	507	510	
11	0	0	0	0	504	512	
12	0	0	0	0	506	513	
13	0	0	0	0	504	511	
14	0	0	0	0	506	511	
15	0	0	0	0	506	512	
0	0	0	0	0	506	513	
1	0	0	0	0	505	512	
2	0	0	0	0	505	510	
3	0	0	0	0	507	509	
4	0	0	0	0	505	511	
5	0	0	0	0	507	512	
6	0	0	0	0	505	512	
7	0	0	0	0	506	513	
8	0	0	0	0	504	511	
9	0	0	0	0	504	511	
10	0	0	0	0	505	511	
11	0	0	0	0	505	513	
12	0	0	0	0	505	511	
13	0	0	0	0	505	513	
14	0	0	0	0	505	511	
15	0	0	0	0	505	515	
0	0	0	0	0	504	515	
1	0	0	0	0	507	513	
2	0	0	0	0	505	511	
3	0	0	0	0	506	511	
4	0	0	0	0	504	512	
5	0	0	0	0	505	512	
6	0	0	0	0	506	510	
7	0	0	0	0	505	511	
8	0	0	0	0	505	513	
9	0	0	0	0	504	510	
10	0	0	0	0	503	513	
11	0	0	0	0	506	513	
12	0	0	0	0	507	511	
13	0	0	0	0	506	510	
14	0	0	0	0	505	512	
15	0	0	0	0	508	512	
0	0	0	0	0	505	512	
1	0	0	0	0	503	513	
2	0	0	0	0	504	513	
3	0	0	0	0	504	512	
4	0	0	0	0	505	513	
5	0	0	0	0	506	511	
6	0	0	0	0	506	511	
7	0	0	0	0	505	512	
8	0	0	0	0	506	511	
9	0	0	0	0	506	511	
10	0	0	0	0	505	512	
11	0	0	0	0	507	514	
12	0	0	0	0	506	512	
13	0	0	0	0	506	511	
14	0	0	0	0	505	512	
15	0	0	0	0	503	512	
0	0	0	0	0	508	512	
1	0	0	0	0	503	513	
2	0	0	0	0	504	512	
3	0	0	0	0	505	510	
4	0	0	0	0	506	511	
5	0	0	0	0	505	511	
6	0	0	0	0	506	513	
7	0	0	0	0	503	512	
8	0	0	0	0	505	510	
9	0	0	0	0	504	512	
10	0	0	0	0	503	512	
11	0	0	0	0	504	512	
12	0	0	0	0	505	511	
13	0	0	0	0	507	511	
14	0	0	0	0	507	512	
15	0	0	0	0	504	512	
0	0	0	0	0	504	512	
1	0	0	0	0	505	512	
2	0	0	0	0	506	512	
3	0	0	0	0	508	508	
4	0	0	0	0	505	512	
5	0	0	0	0	503	515	
6	0	0	0	0	505	513	
7	0	0	0	0	507	512	
8	0	0	0	0	505	511	
9	0	0	0	0	505	511	
10	0	0	0	0	505	512	
11	0	0	0	0	504	512	
12	0	0	0	0	506	510	
13	0	0	0	0	505	513	
14	0	0	0	0	505	513	
15	0	0	0	0	505	510	
0	0	0	0	0	504	510	
1	0	0	0	0	505	512	
2	0	0	0	0	507	511	
3	0	0	0	0	506	510	
4	0	0	0	0	504	512	
5	0	0	0	0	504	512	
6	0	0	0	0	504	513	
7	0	0	0	0	505	513	
8	0	0	0	0	505	510	
9	0	0	0	0	506	514	
10	0	0	0	0	507	513	
11	0	0	0	0	506	513	
12	0	0	0	0	505	511	
13	0	0	0	0	506	511	
14	0	0	0	0	504	512	
15	0	0	0	0	504	512	
0	0	0	0	0	505	512	
1	0	0	0	0	504	512	
2	0	0	0	0	504	513	
3	0	0	0	0	503	512	
4	0	0	0	0	504	512	
5	0	0	0	0	504	513	
6	0	0	0	0	507	512	
7	0	0	0	0	508	514	
8	0	0	0	0	508	512	
9	0	0	0	0	508	512	
10	0	0	0	0	505	510	
11	0	0	0	0	505	511	
12	0	0	0	0	506	511	
13	0	0	0	0	505	511	
14	0	0	0	0	507	511	
15	0	0	0	0	505	510	
0	0	0	0	0	504	510	
1	0	0	0	0	504	509	
2	0	0	0	0	505	511	
3	0	0	0	0	504	511	
4	0	0	0	0	504	512	
5	0	0	0	0	505	511	
6	0	0	0	0	504	513	
7	0	0	0	0	506	515	
8	0	0	0	0	505	517	
9	0	0	0	0	505	513	
10	0	0	0	0	504	514	
11	0	0	0	0	504	511	
12	0	0	0	0	505	510	
13	0	0	0	0	507	512	
14	0	0	0	0	507	511	
15	0	0	0	0	506	511	
0	0	0	0	0	507	511	
1	0	0	0	0	505	513	
2	0	0	0	0	504	511	
3	0	0	0	0	507	513	
4	0	0	0	0	507	512	
5	0	0	0	0	506	513	
6	0	0	0	0	504	511	
7	0	0	0	0	505	511	
8	0	0	0	0	504	511	
9	0	0	0	0	505	511	
10	0	0	0	0	504	512	
11	0	0	0	0	507	512	
12	0	0	0	0	507	512	
13	0	0	0	0	507	513	
14	0	0	0	0	506	511	
15	0	0	0	0	506	512	
0	0	0	0	0	504	513	
1	0	0	0	0	505	512	
2	0	0	0	0	504	513	
3	0	0	0	0	507	512	
4	0	0	0	0	505	511	
5	0	0	0	0	504	513	
6	0	0	0	0	506	511	
7	0	0	0	0	505	512	
8	0	0	0	0	504	512	
9	0	0	0	0	506	512	
10	0	0	0	0	505	511	
11	0	0	0	0	506	512	
12	0	0	0	0	505	514	
13	0	0	0	0	505	512	
14	0	0	0	0	507	513	
15	0	0	0	0	504	511	
0	0	0	0	0	504	512	
1	0	0	0	0	505	510	
2	0	0	0	0	505	509	
3	0	0	0	0	506	512	
4	0	0	0	0	505	511	
5	0	0	0	0	507	513	
6	0	0	0	0	505	513	
7	0	0	0	0	504	512	
8	0	0	0	0	504	511	
9	0	0	0	0	507	512	
10	0	0	0	0	505	510	
11	0	0	0	0	504	512	
12	0	0	0	0	506	513	
13	0	0	0	0	505	511	
14	0	0	0	0	506	512	
15	0	0	0	0	505	512	
0	0	0	0	0	507	512	
1	0	0	0	0	507	512	
2	0	0	0	0	507	512	
3	0	0	0	0	507	512	
4	0	0	0	0	505	510	
5	0	0	0	0	504	512	
6	0	0	0	0	506	511	
7	0	0	0	0	506	511	
8	0	0	0	0	505	512	
9	0	0	0	0	507	512	
10	0	0	0	0	506	515	
11	0	0	0	0	507	515	
12	0	0	0	0	504	512	
13	0	0	0	0	508	511	
14	0	0	0	0	504	512	
15	0	0	0	0	505	511	
0	0	0	0	0	507	515	
1	0	0	0	0	504	511	
2	0	0	0	0	506	511	
3	0	0	0	0	505	511	
4	0	0	0	0	505	512	
5	0	0	0	0	505	512	
6	0	0	0	0	505	511	
7	0	0	0	0	508	511	
8	0	0	0	0	506	512	
9	0	0	0	0	504	513	
10	0	0	0	0	504	515	
11	0	0	0	0	505	511	
12	0	0	0	0	506	511	
13	0	0	0	0	505	513	
14	0	0	0	0	505	512	
15	0	0	0	0	505	512	
0	0	0	0	0	502	512	
1	0	0	0	0	507	511	
2	0	0	0	0	505	512	
3	0	0	0	0	506	510	
4	0	0	0	0	506	511	
5	0	0	0	0	505	512	
6	0	0	0	0	506	512	
7	0	0	0	0	505	510	
8	0	0	0	0	506	512	
9	0	0	0	0	504	513	
10	0	0	0	0	507	514	
11	0	0	0	0	506	515	
12	0	0	0	0	506	513	
13	0	0	0	0	504	512	
14	0	0	0	0	506	511	
15	0	0	0	0	505	510	
0	0	0	0	0	506	512	
1	0	0	0	0	505	511	
2	0	0	0	0	505	510	
3	0	0	0	0	506	511	
4	0	0	0	0	508	511	
5	0	0	0	0	505	511	
6	0	0	0	0	505	512	
7	0	0	0	0	505	512	
8	0	0	0	0	505	516	
9	0	0	0	0	505	511	
10	0	0	0	0	505	512	
11	0	0	0	0	505	510	
12	0	0	0	0	505	512	
13	0	0	0	0	504	512	
14	0	0	0	0	506	512	
15	0	0	0	0	507	511	
0	0	0	0	0	505	511	
1	0	0	0	0	503	510	
2	0	0	0	0	504	510	
3	0	0	0	0	505	511	
4	0	0	0	0	507	512	
5	0	0	0	0	504	511	
6	0	0	0	0	507	513	
7	0	0	0	0	506	514	
8	0	0	0	0	505	512	
9	0	0	0	0	505	513	
10	0	0	0	0	505	512	
11	0	0	0	0	505	512	
12	0	0	0	0	507	512	
13	0	0	0	0	505	512	
14	0	0	0	0	504	510	
15	0	0	0	0	504	511	
0	0	0	0	0	505	512	
1	0	0	0	0	506	512	
2	0	0	0	0	505	512	
3	0	0	0	0	505	514	
4	0	0	0	0	507	511	
5	0	0	0	0	505	515	
6	0	0	0	0	504	512	
7	0	0	0	0	506	513	
8	0	0	0	0	505	513	
9	0	0	0	0	505	511	
10	0	0	0	0	506	512	
11	0	0	0	0	505	513	
12	0	0	0	0	507	509	
13	0	0	0	0	505	512	
14	0	0	0	0	507	512	
15	0	0	0	0	505	512	
0	0	0	0	0	506	511	
1	0	0	0	0	505	511	
2	0	0	0	0	505	511	
3	0	0	0	0	504	512	
4	0	0	0	0	503	510	
5	0	0	0	0	506	513	
6	0	0	0	0	506	512	
7	0	0	0	0	506	513	
8	0	0	0	0	506	511	
9	0	0	0	0	505	511	
10	0	0	0	0	504	511	
11	0	0	0	0	505	513	
12	0	0	0	0	504	512	
13	0	0	0	0	505	513	
14	0	0	0	0	508	511	
15	0	0	0	0	505	515	
0	0	0	0	0	505	508	
1	0	0	0	0	505	513	
2	0	0	0	0	504	511	
3	0	0	0	0	504	511	
4	0	0	0	0	506	510	
5	0	0	0	0	504	511	
6	0	0	0	0	505	512	
7	0	0	0	0	504	514	
8	0	0	0	0	504	512	
9	0	0	0	0	505	512	
10	0	0	0	0	505	512	
11	0	0	0	0	505	512	
12	0	0	0	0	504	513	
13	0	0	0	0	506	509	
14	0	0	0	0	505	512	
15	0	0	0	0	508	511	
0	0	0	0	0	505	513	
1	0	0	0	0	505	512	
2	0	0	0	0	507	510	
3	0	0	0	0	505	510	
4	0	0	0	0	504	511	
5	0	0	0	0	504	512	
6	0	0	0	0	505	512	
7	0	0	0	0	504	512	
8	0	0	0	0	504	510	
9	0	0	0	0	508	514	
10	0	0	0	0	506	513	
11	0	0	0	0	506	513	
12	0	0	0	0	504	513	
13	0	0	0	0	506	511	
14	0	0	0	0	506	511	
15	0	0	0	0	508	512	
0	0	0	0	0	505	509	
1	0	0	0	0	507	512	
2	0	0	0	0	504	513	
3	0	0	0	0	505	511	
4	0	0	0	0	505	510	
5	0	0	0	0	505	514	
6	0	0	0	0	504	515	
7	0	0	0	0	505	514	
8	0	0	0	0	505	517	
9	0	0	0	0	505	513	
10	0	0	0	0	505	511	
11	0	0	0	0	506	511	
12	0	0	0	0	508	510	
13	0	0	0	0	505	511	
14	0	0	0	0	505	511	
15	0	0	0	0	504	513	
0	0	0	0	0	504	512	
1	0	0	0	0	504	513	
2	0	0	0	0	504	511	
3	0	0	0	0	504	511	
4	0	0	0	0	505	512	
5	0	0	0	0	504	511	
6	0	0	0	0	505	511	
7	0	0	0	0	506	510	
8	0	0	0	0	506	511	
9	0	0	0	0	505	511	
10	0	0	0	0	507	510	
11	0	0	0	0	504	510	
12	0	0	0	0	504	509	
13	0	0	0	0	504	513	
14	0	0	0	0	505	510	
15	0	0	0	0	504	515	
0	0	0	0	0	505	512	
1	0	0	0	0	505	511	
2	0	0	0	0	506	512	
3	0	0	0	0	505	511	
4	0	0	0	0	507	512	
5	0	0	0	0	507	512	
6	0	0	0	0	505	511	
7	0	0	0	0	508	513	
8	0	0	0	0	507	513	
9	0	0	0	0	506	512	
10	0	0	0	0	505	513	
11	0	0	0	0	505	511	
12	0	0	0	0	507	514	
13	0	0	0	0	506	513	
14	0	0	0	0	505	511	
15	0	0	0	0	504	511	
0	0	0	0	0	503	512	
1	0	0	0	0	505	510	
2	0	0	0	0	506	510	
3	0	0	0	0	507	511	
4	0	0	0	0	505	513	
5	0	0	0	0	507	514	
6	0	0	0	0	506	512	
7	0	0	0	0	504	511	
8	0	0	0	0	505	513	
9	0	0	0	0	507	513	
10	0	0	0	0	504	512	
11	0	0	0	0	507	511	
12	0	0	0	0	505	509	
13	0	0	0	0	506	511	
14	0	0	0	0	505	512	
15	0	0	0	0	505	513	
0	0	0	0	0	504	513	
1	0	0	0	0	507	512	
2	0	0	0	0	504	511	
3	0	0	0	0	503	512	
4	0	0	0	0	506	511	
5	0	0	0	0	507	512	
6	0	0	0	0	505	511	
7	0	0	0	0	505	511	
8	0	0	0	0	504	511	
9	0	0	0	0	506	512	
10	0	0	0	0	505	513	
11	0	0	0	0	504	512	
12	0	0	0	0	505	512	
13	0	0	0	0	506	511	
14	0	0	0	0	504	510	
15	0	0	0	0	505	512	
0	0	0	0	0	508	511	
1	0	0	0	0	505	511	
2	0	0	0	0	505	511	
3	0	0	0	0	506	511	
4	0	0	0	0	506	511	
5	0	0	0	0	504	512	
6	0	0	0	0	505	512	
7	0	0	0	0	505	511	
8	0	0	0	0	505	513	
9	0	0	0	0	507	515	
10	0	0	0	0	504	513	
11	0	0	0	0	504	512	
12	0	0	0	0	505	513	
13	0	0	0	0	505	512	
14	0	0	0	0	505	511	
15	0	0	0	0	506	510	
0	0	0	0	0	506	510	
1	0	0	0	0	507	511	
2	0	0	0	0	506	515	
3	0	0	0	0	504	511	
4	0	0	0	0	505	511	
5	0	0	0	0	507	511	
6	0	0	0	0	505	511	
7	0	0	0	0	505	511	
8	0	0	0	0	505	511	
9	0	0	0	0	505	511	
10	0	0	0	0	506	509	
11	0	0	0	0	504	511	
12	0	0	0	0	505	511	
13	0	0	0	0	506	511	
14	0	0	0	0	506	512	
15	0	0	0	0	506	511	
0	0	0	0	0	503	512	
1	0	0	0	0	505	512	
2	0	0	0	0	505	513	
3	0	0	0	0	504	510	
4	0	0	0	0	504	512	
5	0	0	0	0	505	513	
6	0	0	0	0	505	515	
7	0	0	0	0	507	514	
8	0	0	0	0	504	513	
9	0	0	0	0	505	512	
10	0	0	0	0	504	512	
11	0	0	0	0	507	513	
12	0	0	0	0	506	511	
13	0	0	0	0	505	510	
14	0	0	0	0	507	511	
15	0	0	0	0	506	511	
0	0	0	0	0	505	512	
1	0	0	0	0	506	511	
2	0	0	0	0	507	512	
3	0	0	0	0	507	512	
4	0	0	0	0	505	513	
5	0	0	0	0	507	512	
6	0	0	0	0	506	510	
7	0	0	0	0	502	509	
8	0	0	0	0	505	515	
9	0	0	0	0	507	512	
10	0	0	0	0	505	513	
11	0	0	0	0	505	511	
12	0	0	0	0	505	510	
13	0	0	0	0	505	509	
14	0	0	0	0	504	510	
15	0	0	0	0	506	512	
0	0	0	0	0	507	511	
1	0	0	0	0	504	511	
2	0	0	0	0	504	513	
3	0	0	0	0	504	513	
4	0	0	0	0	507	512	
5	0	0	0	0	509	514	
6	0	0	0	0	507	513	
7	0	0	0	0	505	512	
8	0	0	0	0	507	511	
9	0	0	0	0	503	510	
10	0	0	0	0	508	510	
11	0	0	0	0	504	510	
12	0	0	0	0	505	511	
13	0	0	0	0	504	515	
14	0	0	0	0	505	512	
15	0	0	0	0	507	513	
0	0	0	0	0	507	513	
1	0	0	0	0	505	514	
2	0	0	0	0	505	512	
3	0	0	0	0	504	510	
4	0	0	0	0	504	511	
5	0	0	0	0	506	512	
6	0	0	0	0	507	511	
7	0	0	0	0	504	513	
8	0	0	0	0	508	510	
9	0	0	0	0	505	512	
10	0	0	0	0	504	511	
11	0	0	0	0	504	510	
12	0	0	0	0	506	513	
13	0	0	0	0	504	512	
14	0	0	0	0	506	512	
15	0	0	0	0	506	513	
0	0	0	0	0	504	515	
1	0	0	0	0	507	515	
2	0	0	0	0	504	512	
3	0	0	0	0	505	513	
4	0	0	0	0	505	512	
5	0	0	0	0	504	510	
6	0	0	0	0	505	512	
7	0	0	0	0	506	512	
8	0	0	0	0	507	512	
9	0	0	0	0	505	511	
10	0	0	0	0	507	510	
11	0	0	0	0	506	511	
12	0	0	0	0	505	512	
13	0	0	0	0	505	512	
14	0	0	0	0	508	509	
15	0	0	0	0	507	512	
0	0	0	0	0	504	513	
1	0	0	0	0	503	512	
2	0	0	0	0	504	514	
3	0	0	0	0	504	511	
4	0	0	0	0	502	511	
5	0	0	0	0	502	511	
6	0	0	0	0	505	511	
7	0	0	0	0	504	510	
8	0	0	0	0	504	511	
9	0	0	0	0	505	514	
10	0	0	0	0	505	513	
11	0	0	0	0	507	512	
12	0	0	0	0	507	513	
13	0	0	0	0	505	510	
14	0	0	0	0	505	512	
15	0	0	0	0	506	510	
0	0	0	0	0	506	512	
1	0	0	0	0	507	512	
2	0	0	0	0	507	513	
3	0	0	0	0	508	511	
4	0	0	0	0	504	511	
5	0	0	0	0	505	511	
6	0	0	0	0	507	512	
7	0	0	0	0	506	511	
8	0	0	0	0	505	512	
9	0	0	0	0	505	511	
10	0	0	0	0	504	511	
11	0	0	0	0	503	512	
12	0	0	0	0	504	512	
13	0	0	0	0	504	512	
14	0	0	0	0	505	512	
15	0	0	0	0	504	511	
0	0	0	0	0	505	513	
1	0	0	0	0	506	511	
2	0	0	0	0	505	510	
3	0	0	0	0	506	512	
4	0	0	0	0	507	512	
5	0	0	0	0	507	512	
6	0	0	0	0	507	514	
7	0	0	0	0	503	511	
8	0	0	0	0	507	511	
9	0	0	0	0	505	511	
10	0	0	0	0	502	512	
11	0	0	0	0	504	512	
12	0	0	0	0	505	513	
13	0	0	0	0	503	511	
14	0	0	0	0	504	512	
15	0	0	0	0	507	512	
0	0	0	0	0	512	511	
1	0	0	0	0	511	512	
2	0	0	0	0	505	511	
3	0	0	0	0	505	508	
4	0	0	0	0	506	512	
5	0	0	0	0	503	512	
6	0	0	0	0	505	511	
7	0	0	0	0	504	513	
8	0	0	0	0	505	515	
9	0	0	0	0	504	510	
10	0	0	0	0	504	512	
11	0	0	0	0	504	511	
12	0	0	0	0	506	512	
13	0	0	0	0	500	512	
14	0	0	0	0	505	510	
15	0	0	0	0	508	513	
0	0	0	0	0	510	512	
1	0	0	0	0	510	513	
2	0	0	0	0	508	512	
3	0	0	0	0	506	512	
4	0	0	0	0	505	513	
5	0	0	0	0	505	512	
6	0	0	0	0	505	512	
7	0	0	0	0	504	512	
8	0	0	0	0	503	510	
9	0	0	0	0	507	511	
10	0	0	0	0	506	512	
11	0	0	0	0	508	509	
12	0	0	0	0	504	512	
13	0	0	0	0	504	512	
14	0	0	0	0	500	513	
15	0	0	0	0	502	511	
0	0	0	0	0	506	511	
1	0	0	0	0	508	509	
2	0	0	0	0	507	514	
3	0	0	0	0	506	511	
4	0	0	0	0	509	510	
5	0	0	0	0	507	511	
6	0	0	0	0	504	512	
7	0	0	0	0	505	511	
8	0	0	0	0	504	511	
9	0	0	0	0	504	514	
10	0	0	0	0	505	514	
11	0	0	0	0	504	513	
12	0	0	0	0	504	511	
13	0	0	0	0	502	510	
14	0	0	0	0	503	510	
15	0	0	0	0	499	512	
0	0	0	0	0	500	511	
1	0	0	0	0	503	510	
2	0	0	0	0	507	511	
3	0	0	0	0	510	512	
4	0	0	0	0	511	511	
5	0	0	0	0	509	512	
6	0	0	0	0	508	511	
7	0	0	0	0	506	511	
8	0	0	0	0	504	511	
9	0	0	0	0	507	513	
10	0	0	0	0	505	512	
11	0	0	0	0	507	512	
12	0	0	0	0	505	512	
13	0	0	0	0	505	513	
14	0	0	0	0	504	513	
15	0	0	0	0	505	512	
0	0	0	0	0	502	511	
1	0	0	0	0	504	512	
2	0	0	0	0	503	512	
3	0	0	0	0	505	512	
4	0	0	0	0	506	513	
5	0	0	0	0	512	513	
6	0	0	0	0	511	513	
7	0	0	0	0	507	512	
8	0	0	0	0	504	511	
9	0	0	0	0	505	514	
10	0	0	0	0	507	511	
11	0	0	0	0	508	512	
12	0	0	0	0	504	511	
13	0	0	0	0	505	511	
14	0	0	0	0	505	511	
15	0	0	0	0	505	511	
0	0	0	0	0	502	512	
1	0	0	0	0	506	512	
2	0	0	0	0	508	512	
3	0	0	0	0	509	512	
4	0	0	0	0	505	513	
5	0	0	0	0	505	513	
6	0	0	0	0	504	513	
7	0	0	0	0	509	512	
8	0	0	0	0	510	510	
9	0	0	0	0	508	511	
10	0	0	0	0	507	512	
11	0	0	0	0	502	511	
12	0	0	0	0	500	513	
13	0	0	0	0	499	511	
14	0	0	0	0	502	511	
15	0	0	0	0	504	511	
0	0	0	0	0	507	510	
1	0	0	0	0	504	511	
2	0	0	0	0	503	513	
3	0	0	0	0	507	511	
4	0	0	0	0	508	509	
5	0	0	0	0	504	511	
6	0	0	0	0	502	512	
7	0	0	0	0	503	510	
8	0	0	0	0	506	510	
9	0	0	0	0	512	512	
10	0	0	0	0	510	511	
11	0	0	0	0	506	512	
12	0	0	0	0	507	511	
13	0	0	0	0	504	514	
14	0	0	0	0	505	513	
15	0	0	0	0	504	514	
0	0	0	0	0	505	513	
1	0	0	0	0	505	513	
2	0	0	0	0	506	513	
3	0	0	0	0	507	515	
4	0	0	0	0	507	512	
5	0	0	0	0	505	511	
6	0	0	0	0	505	510	
7	0	0	0	0	501	511	
8	0	0	0	0	503	511	
9	0	0	0	0	503	510	
10	0	0	0	0	508	512	
11	0	0	0	0	507	511	
12	0	0	0	0	507	511	
13	0	0	0	0	507	512	
14	0	0	0	0	507	512	
15	0	0	0	0	508	512	
0	0	0	0	0	508	511	
1	0	0	0	0	499	512	
2	0	0	0	0	502	511	
3	0	0	0	0	501	511	
4	0	0	0	0	506	512	
5	0	0	0	0	514	511	
6	0	0	0	0	512	511	
7	0	0	0	0	509	512	
8	0	0	0	0	509	513	
9	0	0	0	0	506	511	
10	0	0	0	0	505	513	
11	0	0	0	0	507	513	
12	0	0	0	0	507	512	
13	0	0	0	0	508	513	
14	0	0	0	0	507	512	
15	0	0	0	0	507	511	
0	0	0	0	0	507	513	
1	0	0	0	0	508	512	
2	0	0	0	0	503	512	
3	0	0	0	0	499	511	
4	0	0	0	0	496	509	
5	0	0	0	0	496	508	
6	0	0	0	0	497	511	
7	0	0	0	0	504	508	
8	0	0	0	0	509	509	
9	0	0	0	0	507	512	
10	0	0	0	0	507	513	
11	0	0	0	0	508	512	
12	0	0	0	0	505	512	
13	0	0	0	0	501	513	
14	0	0	0	0	503	515	
15	0	0	0	0	506	513	
0	0	0	0	0	511	515	
1	0	0	0	0	513	512	
2	0	0	0	0	512	511	
3	0	0	0	0	502	511	
4	0	0	0	0	500	511	
5	0	0	0	0	509	510	
6	0	0	0	0	512	512	
7	0	0	0	0	510	515	
8	0	0	0	0	506	511	
9	0	0	0	0	505	511	
10	0	0	0	0	506	511	
11	0	0	0	0	504	512	
12	0	0	0	0	505	512	
13	0	0	0	0	506	513	
14	0	0	0	0	507	513	
15	0	0	0	0	502	512	
0	0	0	0	0	499	516	
1	0	0	0	0	498	512	
2	0	0	0	0	500	515	
3	0	0	0	0	497	513	
4	0	0	0	0	503	509	
5	0	0	0	0	513	512	
6	0	0	0	0	522	510	
7	0	0	0	0	515	508	
8	0	0	0	0	505	509	
9	0	0	0	0	503	510	
10	0	0	0	0	504	510	
11	0	0	0	0	504	510	
12	0	0	0	0	508	508	
13	0	0	0	0	507	510	
14	0	0	0	0	505	511	
15	0	0	0	0	504	515	
0	0	0	0	0	504	518	
1	0	0	0	0	502	515	
2	0	0	0	0	499	512	
3	0	0	0	0	500	511	
4	0	0	0	0	511	514	
5	0	0	0	0	502	517	
6	0	0	0	0	496	516	
7	0	0	0	0	496	515	
8	0	0	0	0	506	512	
9	0	0	0	0	508	510	
10	0	0	0	0	503	508	
11	0	0	0	0	507	510	
12	0	0	0	0	518	509	
13	0	0	0	0	519	508	
14	0	0	0	0	508	509	
15	0	0	0	0	501	512	
0	0	0	0	0	509	515	
1	0	0	0	0	510	516	
2	0	0	0	0	507	518	
3	0	0	0	0	498	514	
4	0	0	0	0	498	517	
5	0	0	0	0	500	516	
6	0	0	0	0	506	511	
7	0	0	0	0	507	511	
8	0	0	0	0	503	507	
9	0	0	0	0	499	502	
10	0	0	0	0	499	498	
11	0	0	0	0	503	498	
12	0	0	0	0	507	499	
13	0	0	0	0	511	503	
14	0	0	0	0	508	507	
15	0	0	0	0	513	511	
0	0	0	0	0	517	515	
1	0	0	0	0	513	515	
2	0	0	0	0	507	513	
3	0	0	0	0	510	521	
4	0	0	0	0	511	529	
5	0	0	0	0	515	534	
6	0	0	0	0	511	524	
7	0	0	0	0	515	519	
8	0	0	0	0	511	519	
9	0	0	0	0	500	519	
10	0	0	0	0	498	519	
11	0	0	0	0	495	519	
12	0	0	0	0	499	522	
13	0	0	0	0	487	516	
14	0	0	0	0	475	503	
15	0	0	0	0	489	494	
0	0	0	0	0	501	491	
1	0	0	0	0	508	490	
2	0	0	0	0	512	492	
3	0	0	0	0	511	491	
4	0	0	0	0	504	494	
5	0	0	0	0	499	500	
6	0	0	0	0	507	506	
7	0	0	0	0	509	513	
8	0	0	0	0	510	518	
9	0	0	0	0	508	518	
10	0	0	0	0	504	515	
11	0	0	0	0	505	514	
12	0	0	0	0	506	515	
13	0	0	0	0	507	519	
14	0	0	0	0	504	522	
15	0	0	0	0	505	522	
0	0	0	0	0	505	518	
1	0	0	0	0	503	512	
2	0	0	0	0	493	510	
3	0	0	0	0	483	515	
4	0	0	0	0	485	519	
5	0	0	0	0	491	521	
6	0	0	0	0	493	524	
7	0	0	0	0	515	525	
8	0	0	0	0	534	520	
9	0	0	0	0	544	515	
10	0	0	0	0	544	511	
11	0	0	0	0	549	515	
12	0	0	0	0	547	510	
13	0	0	0	0	511	504	
14	0	0	0	0	492	504	
15	0	0	0	0	481	499	
0	0	0	0	0	483	499	
1	0	0	0	0	499	504	
2	0	0	0	0	501	511	
3	0	0	0	0	500	513	
4	0	0	0	0	497	507	
5	0	0	0	0	496	508	
6	0	0	0	0	500	510	
7	0	0	0	0	503	515	
8	0	0	0	0	505	519	
9	0	0	0	0	507	519	
10	0	0	0	0	504	521	
11	0	0	0	0	504	517	
12	0	0	0	0	504	520	
13	0	0	0	0	505	522	
14	0	0	0	0	508	520	
15	0	0	0	0	505	515	
0	0	0	0	0	503	511	
1	0	0	0	0	505	508	
2	0	0	0	0	510	502	
3	0	0	0	0	508	502	
4	0	0	0	0	499	508	
5	0	0	0	0	489	507	
6	0	0	0	0	487	506	
7	0	0	0	0	502	503	
8	0	0	0	0	525	501	
9	0	0	0	0	513	505	
10	0	0	0	0	513	512	
11	0	0	0	0	516	519	
12	0	0	0	0	506	516	
13	0	0	0	0	505	510	
14	0	0	0	0	508	507	
15	0	0	0	0	504	505	
0	0	0	0	0	500	507	
1	0	0	0	0	499	514	
2	0	0	0	0	498	516	
3	0	0	0	0	497	507	
4	0	0	0	0	498	504	
5	0	0	0	0	498	509	
6	0	0	0	0	498	507	
7	0	0	0	0	496	507	
8	0	0	0	0	496	515	
9	0	0	0	0	510	523	
10	0	0	0	0	508	520	
11	0	0	0	0	499	518	
12	0	0	0	0	504	521	
13	0	0	0	0	507	515	
14	0	0	0	0	505	515	
15	0	0	0	0	501	511	
0	0	0	0	0	516	524	
1	0	0	0	0	543	537	
2	0	0	0	0	536	529	
3	0	0	0	0	521	521	
4	0	0	0	0	513	515	
5	0	0	0	0	512	511	
6	0	0	0	0	513	498	
7	0	0	0	0	508	492	
8	0	0	0	0	507	504	
9	0	0	0	0	503	506	
10	0	0	0	0	500	499	
11	0	0	0	0	501	492	
12	0	0	0	0	485	495	
13	0	0	0	0	473	509	
14	0	0	0	0	470	518	
15	0	0	0	0	483	520	
0	0	0	0	0	480	522	
1	0	0	0	0	489	514	
2	0	0	0	0	502	502	
3	0	0	0	0	507	494	
4	0	0	0	0	532	487	
5	0	0	0	0	549	489	
6	0	0	0	0	534	499	
7	0	0	0	0	524	505	
8	0	0	0	0	525	519	
9	0	0	0	0	513	524	
10	0	0	0	0	509	524	
11	0	0	0	0	498	530	
12	0	0	0	0	498	533	
13	0	0	0	0	499	537	
14	0	0	0	0	499	531	
15	0	0	0	0	500	519	
0	0	0	0	0	497	508	
1	0	0	0	0	497	509	
2	0	0	0	0	500	514	
3	0	0	0	0	503	513	
4	0	0	0	0	507	516	
5	0	0	0	0	504	518	
6	0	0	0	0	504	519	
7	0	0	0	0	512	518	
8	0	0	0	0	517	512	
9	0	0	0	0	513	515	
10	0	0	0	0	509	513	
11	0	0	0	0	508	513	
12	0	0	0	0	506	515	
13	0	0	0	0	496	508	
14	0	0	0	0	515	492	
15	0	0	0	0	503	488	
0	0	0	0	0	500	500	
1	0	0	0	0	508	514	
2	0	0	0	0	508	520	
3	0	0	0	0	495	511	
4	0	0	0	0	503	506	
5	0	0	0	0	517	498	
6	0	0	0	0	508	491	
7	0	0	0	0	497	499	
8	0	0	0	0	498	518	
9	0	0	0	0	496	518	
10	0	0	0	0	493	495	
11	0	0	0	0	497	476	
12	0	0	0	0	494	491	
13	0	0	0	0	497	530	
14	0	0	0	0	495	555	
15	0	0	0	0	487	558	
0	0	0	0	0	485	546	
1	0	0	0	0	482	525	
2	0	0	0	0	489	499	
3	0	0	0	0	520	477	
4	0	0	0	0	548	480	
5	0	0	0	0	537	487	
6	0	0	0	0	529	502	
7	0	0	0	0	518	521	
8	0	0	0	0	512	522	
9	0	0	0	0	507	523	
10	0	0	0	0	497	534	
11	0	0	0	0	500	540	
12	0	0	0	0	504	521	
13	0	0	0	0	504	508	
14	0	0	0	0	502	501	
15	0	0	0	0	510	514	
0	0	0	0	0	505	519	
1	0	0	0	0	513	515	
2	0	0	0	0	522	507	
3	0	0	0	0	522	499	
4	0	0	0	0	507	497	
5	0	0	0	0	508	500	
6	0	0	0	0	505	515	
7	0	0	0	0	498	515	
8	0	0	0	0	490	502	
9	0	0	0	0	486	492	
10	0	0	0	0	492	504	
11	0	0	0	0	498	544	
12	0	0	0	0	506	569	
13	0	0	0	0	511	568	
14	0	0	0	0	521	527	
15	0	0	0	0	496	497	
0	0	0	0	0	492	497	
1	0	0	0	0	530	510	
2	0	0	0	0	545	524	
3	0	0	0	0	517	515	
4	0	0	0	0	502	498	
5	0	0	0	0	496	486	
6	0	0	0	0	489	478	
7	0	0	0	0	492	461	
8	0	0	0	0	492	468	
9	0	0	0	0	501	486	
10	0	0	0	0	504	509	
11	0	0	0	0	502	526	
12	0	0	0	0	509	536	
13	0	0	0	0	526	537	
14	0	0	0	0	541	529	
15	0	0	0	0	539	546	
0	0	0	0	0	524	563	
1	0	0	0	0	511	548	
2	0	0	0	0	490	508	
3	0	0	0	0	495	475	
4	0	0	0	0	467	455	
5	0	0	0	0	433	462	
6	0	0	0	0	421	478	
7	0	0	0	0	455	477	
8	0	0	0	0	507	488	
9	0	0	0	0	524	514	
10	0	0	0	0	530	525	
11	0	0	0	0	562	525	
12	0	0	0	0	575	530	
13	0	0	0	0	526	536	
14	0	0	0	0	500	532	
15	0	0	0	0	478	531	
0	0	0	0	0	455	527	
1	0	0	0	0	476	523	
2	0	0	0	0	484	495	
3	0	0	0	0	482	496	
4	0	0	0	0	511	512	
5	0	0	0	0	508	534	
6	0	0	0	0	508	552	
7	0	0	0	0	523	559	
8	0	0	0	0	548	532	
9	0	0	0	0	543	500	
10	0	0	0	0	526	492	
11	0	0	0	0	523	501	
12	0	0	0	0	508	506	
13	0	0	0	0	524	499	
14	0	0	0	0	536	503	
15	0	0	0	0	515	503	
0	0	0	0	0	497	496	
1	0	0	0	0	495	504	
2	0	0	0	0	495	516	
3	0	0	0	0	496	519	
4	0	0	0	0	497	519	
5	0	0	0	0	493	522	
6	0	0	0	0	494	516	
7	0	0	0	0	492	510	
8	0	0	0	0	494	497	
9	0	0	0	0	496	489	
10	0	0	0	0	492	498	
11	0	0	0	0	495	511	
12	0	0	0	0	496	526	
13	0	0	0	0	501	531	
14	0	0	0	0	511	526	
15	0	0	0	0	511	515	
0	0	0	0	0	512	505	
1	0	0	0	0	542	503	
2	0	0	0	0	550	507	
3	0	0	0	0	497	510	
4	0	0	0	0	445	503	
5	0	0	0	0	445	499	
6	0	0	0	0	455	504	
7	0	0	0	0	445	507	
8	0	0	0	0	478	521	
9	0	0	0	0	528	522	
10	0	0	0	0	563	512	
11	0	0	0	0	588	510	
12	0	0	0	0	611	505	
13	0	0	0	0	558	509	
14	0	0	0	0	534	513	
15	0	0	0	0	524	518	
0	0	0	0	0	503	519	
1	0	0	0	0	495	530	
2	0	0	0	0	497	536	
3	0	0	0	0	498	536	
4	0	0	0	0	492	518	
5	0	0	0	0	481	504	
6	0	0	0	0	496	499	
7	0	0	0	0	500	480	
8	0	0	0	0	492	469	
9	0	0	0	0	503	488	
10	0	0	0	0	508	513	
11	0	0	0	0	502	519	
12	0	0	0	0	496	538	
13	0	0	0	0	489	539	
14	0	0	0	0	486	532	
15	0	0	0	0	479	519	
0	0	0	0	0	490	507	
1	0	0	0	0	479	494	
2	0	0	0	0	494	486	
3	0	0	0	0	513	495	
4	0	0	0	0	519	499	
5	0	0	0	0	515	497	
6	0	0	0	0	502	496	
7	0	0	0	0	498	493	
8	0	0	0	0	514	522	
9	0	0	0	0	512	521	
10	0	0	0	0	512	521	
11	0	0	0	0	509	520	
12	0	0	0	0	528	538	
13	0	0	0	0	517	570	
14	0	0	0	0	515	553	
15	0	0	0	0	514	518	
0	0	0	0	0	514	496	
1	0	0	0	0	499	493	
2	0	0	0	0	470	497	
3	0	0	0	0	480	516	
4	0	0	0	0	487	515	
5	0	0	0	0	471	499	
6	0	0	0	0	481	497	
7	0	0	0	0	520	512	
8	0	0	0	0	527	514	
9	0	0	0	0	528	509	
10	0	0	0	0	545	509	
11	0	0	0	0	543	519	
12	0	0	0	0	528	518	
13	0	0	0	0	488	507	
14	0	0	0	0	478	501	
15	0	0	0	0	515	507	
0	0	0	0	0	512	519	
1	0	0	0	0	503	511	
2	0	0	0	0	500	507	
3	0	0	0	0	499	496	
4	0	0	0	0	494	491	
5	0	0	0	0	483	510	
6	0	0	0	0	473	509	
7	0	0	0	0	480	508	
8	0	0	0	0	477	516	
9	0	0	0	0	487	519	
10	0	0	0	0	511	514	
11	0	0	0	0	519	510	
12	0	0	0	0	535	507	
13	0	0	0	0	527	493	
14	0	0	0	0	560	507	
15	0	0	0	0	586	506	
0	0	0	0	0	564	519	
1	0	0	0	0	536	543	
2	0	0	0	0	496	543	
3	0	0	0	0	467	545	
4	0	0	0	0	463	531	
5	0	0	0	0	476	522	
6	0	0	0	0	493	514	
7	0	0	0	0	495	508	
8	0	0	0	0	486	497	
9	0	0	0	0	486	492	
10	0	0	0	0	490	488	
11	0	0	0	0	496	482	
12	0	0	0	0	502	495	
13	0	0	0	0	497	526	
14	0	0	0	0	501	535	
15	0	0	0	0	509	526	
0	0	0	0	0	512	526	
1	0	0	0	0	515	508	
2	0	0	0	0	499	505	
3	0	0	0	0	501	501	
4	0	0	0	0	506	498	
5	0	0	0	0	512	505	
6	0	0	0	0	498	518	
7	0	0	0	0	484	524	
8	0	0	0	0	491	520	
9	0	0	0	0	472	503	
10	0	0	0	0	492	490	
11	0	0	0	0	500	495	
12	0	0	0	0	502	510	
13	0	0	0	0	519	502	
14	0	0	0	0	530	498	
15	0	0	0	0	534	497	
0	0	0	0	0	517	506	
1	0	0	0	0	520	516	
2	0	0	0	0	544	516	
3	0	0	0	0	536	518	
4	0	0	0	0	518	521	
5	0	0	0	0	503	529	
6	0	0	0	0	509	536	
7	0	0	0	0	501	524	
8	0	0	0	0	496	523	
9	0	0	0	0	495	530	
10	0	0	0	0	492	526	
11	0	0	0	0	497	514	
12	0	0	0	0	508	505	
13	0	0	0	0	511	499	
14	0	0	0	0	514	486	
15	0	0	0	0	517	487	
0	0	0	0	0	510	484	
1	0	0	0	0	500	491	
2	0	0	0	0	487	503	
3	0	0	0	0	476	512	
4	0	0	0	0	469	520	
5	0	0	0	0	465	535	
6	0	0	0	0	480	549	
7	0	0	0	0	500	552	
8	0	0	0	0	513	558	
9	0	0	0	0	568	543	
10	0	0	0	0	573	509	
11	0	0	0	0	538	507	
12	0	0	0	0	508	526	
13	0	0	0	0	499	507	
14	0	0	0	0	495	492	
15	0	0	0	0	498	483	
0	0	0	0	0	486	483	
1	0	0	0	0	468	483	
2	0	0	0	0	514	491	
3	0	0	0	0	513	493	
4	0	0	0	0	499	496	
5	0	0	0	0	500	503	
6	0	0	0	0	507	512	
7	0	0	0	0	509	520	
8	0	0	0	0	507	531	
9	0	0	0	0	505	522	
10	0	0	0	0	489	502	
11	0	0	0	0	482	503	
12	0	0	0	0	499	519	
13	0	0	0	0	513	521	
14	0	0	0	0	515	520	
15	0	0	0	0	510	519	
0	0	0	0	0	508	517	
1	0	0	0	0	505	518	
2	0	0	0	0	509	516	
3	0	0	0	0	514	504	
4	0	0	0	0	511	489	
5	0	0	0	0	497	495	
6	0	0	0	0	501	487	
7	0	0	0	0	505	486	
8	0	0	0	0	508	487	
9	0	0	0	0	495	483	
10	0	0	0	0	511	476	
11	0	0	0	0	513	494	
12	0	0	0	0	490	520	
13	0	0	0	0	487	560	
14	0	0	0	0	483	565	
15	0	0	0	0	498	544	
0	0	0	0	0	504	563	
1	0	0	0	0	496	556	
2	0	0	0	0	515	541	
3	0	0	0	0	545	552	
4	0	0	0	0	556	551	
5	0	0	0	0	524	536	
6	0	0	0	0	511	525	
7	0	0	0	0	522	497	
8	0	0	0	0	472	482	
9	0	0	0	0	472	472	
10	0	0	0	0	487	484	
11	0	0	0	0	496	483	
12	0	0	0	0	506	481	
13	0	0	0	0	519	499	
14	0	0	0	0	539	527	
15	0	0	0	0	556	530	
0	0	0	0	0	531	509	
1	0	0	0	0	505	512	
2	0	0	0	0	484	537	
3	0	0	0	0	486	529	
4	0	0	0	0	476	493	
5	0	0	0	0	483	486	
6	0	0	0	0	482	503	
7	0	0	0	0	474	512	
8	0	0	0	0	472	496	
9	0	0	0	0	485	500	
10	0	0	0	0	494	513	
11	0	0	0	0	498	520	
12	0	0	0	0	544	518	
13	0	0	0	0	551	509	
14	0	0	0	0	542	506	
15	0	0	0	0	521	505	
0	0	0	0	0	499	501	
1	0	0	0	0	506	507	
2	0	0	0	0	515	508	
3	0	0	0	0	506	511	
4	0	0	0	0	500	508	
5	0	0	0	0	497	506	
6	0	0	0	0	499	513	
7	0	0	0	0	503	520	
8	0	0	0	0	505	518	
9	0	0	0	0	503	512	
10	0	0	0	0	504	510	
11	0	0	0	0	503	515	
12	0	0	0	0	502	513	
13	0	0	0	0	501	512	
14	0	0	0	0	502	512	
15	0	0	0	0	504	520	
0	0	0	0	0	504	527	
1	0	0	0	0	506	527	
2	0	0	0	0	498	511	
3	0	0	0	0	494	506	
4	0	0	0	0	498	512	
5	0	0	0	0	503	518	
6	0	0	0	0	504	521	
7	0	0	0	0	508	519	
8	0	0	0	0	518	498	
9	0	0	0	0	521	479	
10	0	0	0	0	516	480	
11	0	0	0	0	518	488	
12	0	0	0	0	531	496	
13	0	0	0	0	515	504	
14	0	0	0	0	524	515	
15	0	0	0	0	511	510	
0	0	0	0	0	498	519	
1	0	0	0	0	483	523	
2	0	0	0	0	483	529	
3	0	0	0	0	475	523	
4	0	0	0	0	486	524	
5	0	0	0	0	507	526	
6	0	0	0	0	520	529	
7	0	0	0	0	524	565	
8	0	0	0	0	519	574	
9	0	0	0	0	500	541	
10	0	0	0	0	487	522	
11	0	0	0	0	483	512	
12	0	0	0	0	474	510	
13	0	0	0	0	474	490	
14	0	0	0	0	492	456	
15	0	0	0	0	527	439	
0	0	0	0	0	532	459	
1	0	0	0	0	524	495	
2	0	0	0	0	496	532	
3	0	0	0	0	525	529	
4	0	0	0	0	543	530	
5	0	0	0	0	492	548	
6	0	0	0	0	462	543	
7	0	0	0	0	490	517	
8	0	0	0	0	532	493	
9	0	0	0	0	553	459	
10	0	0	0	0	531	463	
11	0	0	0	0	521	497	
12	0	0	0	0	505	513	
13	0	0	0	0	495	540	
14	0	0	0	0	502	543	
15	0	0	0	0	498	531	
0	0	0	0	0	499	520	
1	0	0	0	0	496	493	
2	0	0	0	0	491	457	
3	0	0	0	0	489	457	
4	0	0	0	0	486	459	
5	0	0	0	0	487	483	
6	0	0	0	0	497	527	
7	0	0	0	0	501	551	
8	0	0	0	0	504	570	
9	0	0	0	0	504	573	
10	0	0	0	0	506	541	
11	0	0	0	0	507	524	
12	0	0	0	0	507	527	
13	0	0	0	0	513	512	
14	0	0	0	0	508	467	
15	0	0	0	0	548	477	
0	0	0	0	0	540	480	
1	0	0	0	0	520	492	
2	0	0	0	0	499	515	
3	0	0	0	0	491	505	
4	0	0	0	0	488	523	
5	0	0	0	0	491	557	
6	0	0	0	0	497	574	
7	0	0	0	0	509	543	
8	0	0	0	0	522	520	
9	0	0	0	0	518	543	
10	0	0	0	0	506	540	
11	0	0	0	0	496	518	
12	0	0	0	0	495	511	
13	0	0	0	0	513	511	
14	0	0	0	0	500	492	
15	0	0	0	0	506	487	
0	0	0	0	0	511	503	
1	0	0	0	0	489	511	
2	0	0	0	0	487	506	
3	0	0	0	0	499	518	
4	0	0	0	0	503	541	
5	0	0	0	0	495	533	
6	0	0	0	0	504	509	
7	0	0	0	0	502	485	
8	0	0	0	0	495	467	
9	0	0	0	0	499	462	
10	0	0	0	0	491	492	
11	0	0	0	0	507	515	
12	0	0	0	0	488	513	
13	0	0	0	0	472	507	
14	0	0	0	0	506	516	
15	0	0	0	0	524	517	
0	0	0	0	0	534	529	
1	0	0	0	0	536	523	
2	0	0	0	0	528	501	
3	0	0	0	0	529	484	
4	0	0	0	0	550	486	
5	0	0	0	0	532	515	
6	0	0	0	0	508	553	
7	0	0	0	0	501	571	
8	0	0	0	0	480	545	
9	0	0	0	0	457	512	
10	0	0	0	0	456	473	
11	0	0	0	0	459	468	
12	0	0	0	0	467	476	
13	0	0	0	0	496	476	
14	0	0	0	0	553	483	
15	0	0	0	0	591	483	
0	0	0	0	0	568	491	
1	0	0	0	0	527	508	
2	0	0	0	0	509	521	
3	0	0	0	0	483	527	
4	0	0	0	0	474	528	
5	0	0	0	0	467	535	
6	0	0	0	0	487	558	
7	0	0	0	0	490	545	
8	0	0	0	0	492	520	
9	0	0	0	0	510	511	
10	0	0	0	0	543	499	
11	0	0	0	0	540	500	
12	0	0	0	0	533	497	
13	0	0	0	0	489	499	
14	0	0	0	0	444	504	
15	0	0	0	0	444	518	
0	0	0	0	0	503	512	
1	0	0	0	0	535	512	
2	0	0	0	0	519	542	
3	0	0	0	0	552	544	
4	0	0	0	0	566	548	
5	0	0	0	0	547	589	
6	0	0	0	0	535	572	
7	0	0	0	0	490	496	
8	0	0	0	0	491	441	
9	0	0	0	0	498	433	
10	0	0	0	0	511	455	
11	0	0	0	0	523	481	
12	0	0	0	0	515	497	
13	0	0	0	0	480	523	
14	0	0	0	0	492	540	
15	0	0	0	0	473	547	
0	0	0	0	0	452	539	
1	0	0	0	0	464	517	
2	0	0	0	0	481	492	
3	0	0	0	0	490	511	
4	0	0	0	0	499	543	
5	0	0	0	0	513	543	
6	0	0	0	0	512	489	
7	0	0	0	0	502	476	
8	0	0	0	0	503	461	
9	0	0	0	0	490	455	
10	0	0	0	0	480	434	
11	0	0	0	0	477	444	
12	0	0	0	0	492	481	
13	0	0	0	0	529	539	
14	0	0	0	0	528	588	
15	0	0	0	0	531	590	
0	0	0	0	0	523	605	
1	0	0	0	0	515	586	
2	0	0	0	0	512	557	
3	0	0	0	0	508	542	
4	0	0	0	0	511	506	
5	0	0	0	0	512	499	
6	0	0	0	0	520	487	
7	0	0	0	0	519	482	
8	0	0	0	0	504	489	
9	0	0	0	0	504	501	
10	0	0	0	0	505	502	
11	0	0	0	0	502	489	
12	0	0	0	0	487	466	
13	0	0	0	0	482	461	
14	0	0	0	0	500	489	
15	0	0	0	0	503	505	
0	0	0	0	0	503	524	
1	0	0	0	0	496	560	
2	0	0	0	0	495	577	
3	0	0	0	0	511	599	
4	0	0	0	0	535	562	
5	0	0	0	0	545	503	
6	0	0	0	0	516	475	
7	0	0	0	0	473	468	
8	0	0	0	0	501	491	
9	0	0	0	0	525	504	
10	0	0	0	0	549	515	
11	0	0	0	0	536	542	
12	0	0	0	0	519	550	
13	0	0	0	0	513	503	
14	0	0	0	0	506	481	
15	0	0	0	0	497	473	
0	0	0	0	0	487	474	
1	0	0	0	0	456	499	
2	0	0	0	0	441	503	
3	0	0	0	0	489	501	
4	0	0	0	0	519	519	
5	0	0	0	0	472	531	
6	0	0	0	0	464	535	
7	0	0	0	0	472	536	
8	0	0	0	0	519	526	
9	0	0	0	0	540	495	
10	0	0	0	0	539	478	
11	0	0	0	0	531	449	
12	0	0	0	0	528	464	
13	0	0	0	0	529	486	
14	0	0	0	0	555	489	
15	0	0	0	0	534	518	
0	0	0	0	0	525	536	
1	0	0	0	0	506	555	
2	0	0	0	0	499	551	
3	0	0	0	0	489	527	
4	0	0	0	0	489	524	
5	0	0	0	0	491	538	
6	0	0	0	0	492	521	
7	0	0	0	0	482	505	
8	0	0	0	0	488	505	
9	0	0	0	0	498	514	
10	0	0	0	0	511	504	
11	0	0	0	0	502	502	
12	0	0	0	0	499	513	
13	0	0	0	0	513	522	
14	0	0	0	0	513	524	
15	0	0	0	0	507	520	
0	0	0	0	0	496	521	
1	0	0	0	0	492	524	
2	0	0	0	0	506	508	
3	0	0	0	0	501	491	
4	0	0	0	0	478	480	
5	0	0	0	0	443	453	
6	0	0	0	0	464	464	
7	0	0	0	0	531	478	
8	0	0	0	0	540	459	
9	0	0	0	0	535	459	
10	0	0	0	0	530	506	
11	0	0	0	0	534	524	
12	0	0	0	0	541	530	
13	0	0	0	0	536	555	
14	0	0	0	0	517	608	
15	0	0	0	0	495	667	
0	0	0	0	0	495	675	
1	0	0	0	0	501	577	
2	0	0	0	0	500	506	
3	0	0	0	0	495	514	
4	0	0	0	0	493	524	
5	0	0	0	0	497	471	
6	0	0	0	0	484	412	
7	0	0	0	0	457	428	
8	0	0	0	0	494	447	
9	0	0	0	0	511	438	
10	0	0	0	0	501	443	
11	0	0	0	0	512	469	
12	0	0	0	0	531	504	
13	0	0	0	0	543	522	
14	0	0	0	0	517	528	
15	0	0	0	0	499	557	
0	0	0	0	0	459	541	
1	0	0	0	0	487	527	
2	0	0	0	0	500	563	
3	0	0	0	0	508	635	
4	0	0	0	0	507	590	
5	0	0	0	0	519	498	
6	0	0	0	0	547	444	
7	0	0	0	0	570	425	
8	0	0	0	0	506	426	
9	0	0	0	0	482	473	
10	0	0	0	0	496	510	
11	0	0	0	0	484	518	
12	0	0	0	0	517	534	
13	0	0	0	0	517	579	
14	0	0	0	0	492	625	
15	0	0	0	0	491	585	
0	0	0	0	0	492	530	
1	0	0	0	0	493	488	
2	0	0	0	0	499	487	
3	0	0	0	0	529	481	
4	0	0	0	0	524	478	
5	0	0	0	0	503	483	
6	0	0	0	0	495	506	
7	0	0	0	0	496	509	
8	0	0	0	0	499	511	
9	0	0	0	0	489	508	
10	0	0	0	0	488	510	
11	0	0	0	0	492	502	
12	0	0	0	0	513	492	
13	0	0	0	0	533	505	
14	0	0	0	0	519	505	
15	0	0	0	0	514	487	
0	0	0	0	0	521	476	
1	0	0	0	0	528	486	
2	0	0	0	0	522	516	
3	0	0	0	0	494	518	
4	0	0	0	0	480	517	
5	0	0	0	0	476	507	
6	0	0	0	0	489	513	
7	0	0	0	0	503	543	
8	0	0	0	0	484	564	
9	0	0	0	0	506	571	
10	0	0	0	0	524	531	
11	0	0	0	0	504	475	
12	0	0	0	0	471	462	
13	0	0	0	0	484	488	
14	0	0	0	0	540	508	
15	0	0	0	0	573	504	
0	0	0	0	0	569	486	
1	0	0	0	0	551	464	
2	0	0	0	0	528	442	
3	0	0	0	0	503	466	
4	0	0	0	0	472	514	
5	0	0	0	0	444	569	
6	0	0	0	0	440	576	
7	0	0	0	0	475	582	
8	0	0	0	0	498	590	
9	0	0	0	0	501	559	
10	0	0	0	0	537	526	
11	0	0	0	0	514	518	
12	0	0	0	0	502	527	
13	0	0	0	0	507	529	
14	0	0	0	0	514	531	
15	0	0	0	0	506	518	
0	0	0	0	0	501	478	
1	0	0	0	0	511	463	
2	0	0	0	0	504	465	
3	0	0	0	0	499	468	
4	0	0	0	0	505	480	
5	0	0	0	0	508	501	
6	0	0	0	0	501	502	
7	0	0	0	0	495	508	
8	0	0	0	0	495	516	
9	0	0	0	0	496	541	
10	0	0	0	0	499	533	
11	0	0	0	0	500	518	
12	0	0	0	0	496	494	
13	0	0	0	0	508	486	
14	0	0	0	0	531	491	
15	0	0	0	0	531	492	
0	0	0	0	0	538	493	
1	0	0	0	0	525	482	
2	0	0	0	0	499	488	
3	0	0	0	0	501	503	
4	0	0	0	0	491	489	
5	0	0	0	0	481	520	
6	0	0	0	0	508	536	
7	0	0	0	0	507	541	
8	0	0	0	0	518	557	
9	0	0	0	0	530	559	
10	0	0	0	0	534	632	
11	0	0	0	0	527	643	
12	0	0	0	0	508	546	
13	0	0	0	0	496	474	
14	0	0	0	0	485	481	
15	0	0	0	0	477	483	
0	0	0	0	0	461	487	
1	0	0	0	0	454	496	
2	0	0	0	0	466	507	
3	0	0	0	0	497	489	
4	0	0	0	0	486	460	
5	0	0	0	0	489	473	
6	0	0	0	0	535	492	
7	0	0	0	0	573	516	
8	0	0	0	0	561	518	
9	0	0	0	0	544	484	
10	0	0	0	0	521	469	
11	0	0	0	0	494	463	
12	0	0	0	0	497	454	
13	0	0	0	0	508	484	
14	0	0	0	0	506	524	
15	0	0	0	0	500	543	
0	0	0	0	0	492	580	
1	0	0	0	0	485	604	
2	0	0	0	0	492	561	
3	0	0	0	0	501	523	
4	0	0	0	0	491	486	
5	0	0	0	0	488	459	
6	0	0	0	0	500	466	
7	0	0	0	0	543	495	
8	0	0	0	0	548	499	
9	0	0	0	0	516	508	
10	0	0	0	0	520	559	
11	0	0	0	0	510	577	
12	0	0	0	0	504	572	
13	0	0	0	0	496	563	
14	0	0	0	0	492	506	
15	0	0	0	0	491	487	
0	0	0	0	0	495	516	
1	0	0	0	0	502	540	
2	0	0	0	0	507	540	
3	0	0	0	0	505	508	
4	0	0	0	0	497	491	
5	0	0	0	0	487	464	
6	0	0	0	0	511	428	
7	0	0	0	0	500	428	
8	0	0	0	0	494	450	
9	0	0	0	0	501	468	
10	0	0	0	0	507	497	
11	0	0	0	0	519	519	
12	0	0	0	0	520	521	
13	0	0	0	0	518	549	
14	0	0	0	0	514	575	
15	0	0	0	0	510	556	
0	0	0	0	0	495	549	
1	0	0	0	0	490	541	
2	0	0	0	0	487	563	
3	0	0	0	0	479	507	
4	0	0	0	0	478	493	
5	0	0	0	0	489	515	
6	0	0	0	0	502	546	
7	0	0	0	0	519	535	
8	0	0	0	0	539	504	
9	0	0	0	0	551	502	
10	0	0	0	0	557	493	
11	0	0	0	0	562	473	
12	0	0	0	0	508	493	
13	0	0	0	0	448	482	
14	0	0	0	0	475	466	
15	0	0	0	0	496	463	
0	0	0	0	0	499	485	
1	0	0	0	0	504	485	
2	0	0	0	0	503	492	
3	0	0	0	0	483	549	
4	0	0	0	0	482	569	
5	0	0	0	0	489	555	
6	0	0	0	0	505	597	
7	0	0	0	0	486	611	
8	0	0	0	0	482	583	
9	0	0	0	0	489	527	
10	0	0	0	0	521	477	
11	0	0	0	0	565	439	
12	0	0	0	0	588	412	
13	0	0	0	0	536	436	
14	0	0	0	0	472	473	
15	0	0	0	0	450	483	
0	0	0	0	0	482	455	
1	0	0	0	0	491	457	
2	0	0	0	0	486	514	
3	0	0	0	0	483	591	
4	0	0	0	0	504	595	
5	0	0	0	0	522	560	
6	0	0	0	0	534	527	
7	0	0	0	0	592	501	
8	0	0	0	0	584	530	
9	0	0	0	0	550	557	
10	0	0	0	0	510	540	
11	0	0	0	0	479	528	
12	0	0	0	0	470	500	
13	0	0	0	0	474	499	
14	0	0	0	0	467	497	
15	0	0	0	0	476	521	
0	0	0	0	0	493	563	
1	0	0	0	0	500	601	
2	0	0	0	0	503	571	
3	0	0	0	0	497	460	
4	0	0	0	0	500	401	
5	0	0	0	0	504	423	
6	0	0	0	0	499	443	
7	0	0	0	0	512	474	
8	0	0	0	0	509	480	
9	0	0	0	0	502	505	
10	0	0	0	0	482	540	
11	0	0	0	0	488	527	
12	0	0	0	0	494	488	
13	0	0	0	0	495	487	
14	0	0	0	0	521	499	
15	0	0	0	0	526	509	
0	0	0	0	0	516	540	
1	0	0	0	0	515	569	
2	0	0	0	0	510	582	
3	0	0	0	0	497	567	
4	0	0	0	0	495	527	
5	0	0	0	0	502	495	
6	0	0	0	0	504	496	
7	0	0	0	0	511	505	
8	0	0	0	0	514	511	
9	0	0	0	0	505	505	
10	0	0	0	0	508	522	
11	0	0	0	0	499	522	
12	0	0	0	0	498	505	
13	0	0	0	0	522	492	
14	0	0	0	0	508	512	
15	0	0	0	0	507	496	
0	0	0	0	0	511	492	
1	0	0	0	0	521	511	
2	0	0	0	0	507	516	
3	0	0	0	0	492	512	
4	0	0	0	0	493	497	
5	0	0	0	0	500	496	
6	0	0	0	0	487	505	
7	0	0	0	0	491	517	
8	0	0	0	0	490	516	
9	0	0	0	0	518	521	
10	0	0	0	0	563	515	
11	0	0	0	0	588	498	
12	0	0	0	0	537	495	
13	0	0	0	0	494	505	
14	0	0	0	0	487	488	
15	0	0	0	0	477	488	
0	0	0	0	0	488	486	
1	0	0	0	0	488	501	
2	0	0	0	0	488	524	
3	0	0	0	0	495	536	
4	0	0	0	0	502	568	
5	0	0	0	0	504	595	
6	0	0	0	0	510	599	
7	0	0	0	0	502	564	
8	0	0	0	0	501	514	
9	0	0	0	0	492	496	
10	0	0	0	0	487	505	
11	0	0	0	0	495	494	
12	0	0	0	0	493	489	
13	0	0	0	0	505	493	
14	0	0	0	0	502	479	
15	0	0	0	0	522	446	
0	0	0	0	0	545	429	
1	0	0	0	0	551	434	
2	0	0	0	0	532	456	
3	0	0	0	0	529	472	
4	0	0	0	0	505	495	
5	0	0	0	0	493	532	
6	0	0	0	0	477	555	
7	0	0	0	0	461	531	
8	0	0	0	0	446	504	
9	0	0	0	0	481	532	
10	0	0	0	0	486	568	
11	0	0	0	0	501	561	
12	0	0	0	0	516	586	
13	0	0	0	0	522	604	
14	0	0	0	0	528	580	
15	0	0	0	0	532	525	
0	0	0	0	0	497	532	
1	0	0	0	0	504	504	
2	0	0	0	0	521	477	
3	0	0	0	0	542	471	
4	0	0	0	0	540	489	
5	0	0	0	0	527	524	
6	0	0	0	0	528	549	
7	0	0	0	0	489	497	
8	0	0	0	0	486	496	
9	0	0	0	0	492	511	
10	0	0	0	0	495	539	
11	0	0	0	0	495	536	
12	0	0	0	0	495	513	
13	0	0	0	0	504	506	
14	0	0	0	0	495	477	
15	0	0	0	0	485	449	
0	0	0	0	0	489	452	
1	0	0	0	0	502	463	
2	0	0	0	0	502	476	
3	0	0	0	0	502	493	
4	0	0	0	0	501	519	
5	0	0	0	0	508	516	
6	0	0	0	0	499	538	
7	0	0	0	0	473	524	
8	0	0	0	0	476	504	
9	0	0	0	0	442	495	
10	0	0	0	0	472	504	
11	0	0	0	0	505	518	
12	0	0	0	0	548	525	
13	0	0	0	0	556	521	
14	0	0	0	0	577	504	
15	0	0	0	0	604	526	
0	0	0	0	0	589	534	
1	0	0	0	0	546	571	
2	0	0	0	0	522	575	
3	0	0	0	0	495	511	
4	0	0	0	0	483	498	
5	0	0	0	0	481	492	
6	0	0	0	0	487	486	
7	0	0	0	0	485	487	
8	0	0	0	0	483	497	
9	0	0	0	0	494	515	
10	0	0	0	0	492	538	
11	0	0	0	0	484	531	
12	0	0	0	0	487	500	
13	0	0	0	0	485	483	
14	0	0	0	0	493	492	
15	0	0	0	0	502	508	
0	0	0	0	0	506	516	
1	0	0	0	0	505	515	
2	0	0	0	0	509	508	
3	0	0	0	0	507	508	
4	0	0	0	0	513	511	
5	0	0	0	0	497	523	
6	0	0	0	0	496	505	
7	0	0	0	0	514	499	
8	0	0	0	0	523	498	
9	0	0	0	0	496	504	
10	0	0	0	0	478	502	
11	0	0	0	0	486	493	
12	0	0	0	0	508	471	
13	0	0	0	0	485	467	
14	0	0	0	0	480	483	
15	0	0	0	0	497	493	
0	0	0	0	0	527	516	
1	0	0	0	0	534	612	
2	0	0	0	0	531	691	
3	0	0	0	0	539	648	
4	0	0	0	0	512	543	
5	0	0	0	0	533	489	
6	0	0	0	0	519	474	
7	0	0	0	0	518	456	
8	0	0	0	0	516	449	
9	0	0	0	0	512	486	
10	0	0	0	0	488	523	
11	0	0	0	0	494	543	
12	0	0	0	0	494	523	
13	0	0	0	0	487	511	
14	0	0	0	0	489	471	
15	0	0	0	0	491	461	
0	0	0	0	0	488	455	
1	0	0	0	0	484	456	
2	0	0	0	0	490	498	
3	0	0	0	0	513	510	
4	0	0	0	0	528	542	
5	0	0	0	0	535	570	
6	0	0	0	0	530	577	
7	0	0	0	0	516	548	
8	0	0	0	0	488	537	
9	0	0	0	0	512	509	
10	0	0	0	0	484	487	
11	0	0	0	0	495	491	
12	0	0	0	0	510	495	
13	0	0	0	0	515	497	
14	0	0	0	0	513	494	
15	0	0	0	0	530	494	
0	0	0	0	0	517	491	
1	0	0	0	0	507	491	
2	0	0	0	0	500	501	
3	0	0	0	0	503	524	
4	0	0	0	0	510	556	
5	0	0	0	0	505	537	
6	0	0	0	0	479	513	
7	0	0	0	0	487	502	
8	0	0	0	0	497	510	
9	0	0	0	0	516	523	
10	0	0	0	0	533	505	
11	0	0	0	0	512	446	
12	0	0	0	0	502	414	
13	0	0	0	0	487	405	
14	0	0	0	0	473	428	
15	0	0	0	0	458	476	
0	0	0	0	0	492	571	
1	0	0	0	0	528	646	
2	0	0	0	0	543	722	
3	0	0	0	0	533	732	
4	0	0	0	0	484	630	
5	0	0	0	0	476	484	
6	0	0	0	0	490	423	
7	0	0	0	0	473	388	
8	0	0	0	0	493	403	
9	0	0	0	0	572	442	
10	0	0	0	0	568	485	
11	0	0	0	0	530	529	
12	0	0	0	0	511	567	
13	0	0	0	0	489	574	
14	0	0	0	0	499	559	
15	0	0	0	0	494	534	
0	0	0	0	0	490	488	
1	0	0	0	0	489	497	
2	0	0	0	0	486	510	
3	0	0	0	0	483	477	
4	0	0	0	0	491	462	
5	0	0	0	0	510	463	
6	0	0	0	0	521	510	
7	0	0	0	0	528	566	
8	0	0	0	0	517	581	
9	0	0	0	0	513	548	
10	0	0	0	0	516	532	
11	0	0	0	0	505	511	
12	0	0	0	0	493	490	
13	0	0	0	0	473	490	
14	0	0	0	0	473	482	
15	0	0	0	0	487	487	
0	0	0	0	0	510	506	
1	0	0	0	0	531	531	
2	0	0	0	0	541	514	
3	0	0	0	0	521	491	
4	0	0	0	0	513	491	
5	0	0	0	0	507	494	
6	0	0	0	0	511	483	
7	0	0	0	0	503	493	
8	0	0	0	0	499	510	
9	0	0	0	0	498	503	
10	0	0	0	0	497	503	
11	0	0	0	0	496	519	
12	0	0	0	0	499	546	
13	0	0	0	0	492	554	
14	0	0	0	0	482	535	
15	0	0	0	0	493	502	
0	0	0	0	0	526	489	
1	0	0	0	0	543	449	
2	0	0	0	0	528	425	
3	0	0	0	0	525	462	
4	0	0	0	0	514	524	
5	0	0	0	0	481	540	
6	0	0	0	0	476	525	
7	0	0	0	0	478	540	
8	0	0	0	0	470	560	
9	0	0	0	0	486	595	
10	0	0	0	0	529	557	
11	0	0	0	0	581	498	
12	0	0	0	0	548	483	
13	0	0	0	0	557	483	
14	0	0	0	0	514	483	
15	0	0	0	0	476	509	
0	0	0	0	0	467	532	
1	0	0	0	0	464	563	
2	0	0	0	0	487	568	
3	0	0	0	0	509	514	
4	0	0	0	0	512	451	
5	0	0	0	0	549	440	
6	0	0	0	0	539	478	
7	0	0	0	0	504	516	
8	0	0	0	0	483	527	
9	0	0	0	0	469	582	
10	0	0	0	0	497	653	
11	0	0	0	0	512	630	
12	0	0	0	0	515	524	
13	0	0	0	0	507	492	
14	0	0	0	0	503	490	
15	0	0	0	0	505	463	
0	0	0	0	0	490	465	
1	0	0	0	0	486	478	
2	0	0	0	0	489	489	
3	0	0	0	0	490	491	
4	0	0	0	0	487	502	
5	0	0	0	0	492	517	
6	0	0	0	0	480	524	
7	0	0	0	0	475	502	
8	0	0	0	0	465	490	
9	0	0	0	0	497	493	
10	0	0	0	0	523	507	
11	0	0	0	0	526	525	
12	0	0	0	0	577	504	
13	0	0	0	0	614	488	
14	0	0	0	0	577	487	
15	0	0	0	0	550	498	
0	0	0	0	0	510	508	
1	0	0	0	0	483	504	
2	0	0	0	0	473	501	
3	0	0	0	0	479	497	
4	0	0	0	0	473	503	
5	0	0	0	0	478	524	
6	0	0	0	0	499	535	
7	0	0	0	0	502	528	
8	0	0	0	0	494	558	
9	0	0	0	0	484	579	
10	0	0	0	0	493	566	
11	0	0	0	0	505	544	
12	0	0	0	0	490	492	
13	0	0	0	0	470	454	
14	0	0	0	0	467	452	
15	0	0	0	0	514	457	
0	0	0	0	0	556	443	
1	0	0	0	0	558	400	
2	0	0	0	0	550	332	
3	0	0	0	0	491	347	
4	0	0	0	0	480	427	
5	0	0	0	0	482	547	
6	0	0	0	0	536	646	
7	0	0	0	0	551	689	
8	0	0	0	0	553	724	
9	0	0	0	0	524	744	
10	0	0	0	0	503	672	
11	0	0	0	0	534	611	
12	0	0	0	0	505	562	
13	0	0	0	0	481	541	
14	0	0	0	0	460	498	
15	0	0	0	0	471	457	
0	0	0	0	0	479	439	
1	0	0	0	0	487	444	
2	0	0	0	0	488	459	
3	0	0	0	0	489	463	
4	0	0	0	0	489	472	
5	0	0	0	0	489	475	
6	0	0	0	0	492	474	
7	0	0	0	0	501	477	
8	0	0	0	0	503	481	
9	0	0	0	0	501	486	
10	0	0	0	0	506	496	
11	0	0	0	0	511	495	
12	0	0	0	0	511	500	
13	0	0	0	0	513	510	
14	0	0	0	0	512	519	
15	0	0	0	0	510	525	
0	0	0	0	0	512	521	
1	0	0	0	0	511	517	
2	0	0	0	0	512	518	
3	0	0	0	0	512	512	
4	0	0	0	0	519	505	
5	0	0	0	0	521	508	
6	0	0	0	0	506	511	
7	0	0	0	0	510	525	
8	0	0	0	0	519	517	
9	0	0	0	0	514	495	
10	0	0	0	0	508	480	
11	0	0	0	0	506	475	
12	0	0	0	0	510	500	
13	0	0	0	0	504	523	
14	0	0	0	0	491	517	
15	0	0	0	0	481	499	
0	0	0	0	0	486	512	
1	0	0	0	0	493	572	
2	0	0	0	0	485	606	
3	0	0	0	0	479	569	
4	0	0	0	0	481	503	
5	0	0	0	0	520	435	
6	0	0	0	0	549	451	
7	0	0	0	0	544	479	
8	0	0	0	0	480	459	
9	0	0	0	0	470	469	
10	0	0	0	0	477	542	
11	0	0	0	0	555	658	
12	0	0	0	0	574	716	
13	0	0	0	0	543	607	
14	0	0	0	0	502	507	
15	0	0	0	0	506	443	
0	0	0	0	0	539	436	
1	0	0	0	0	522	491	
2	0	0	0	0	494	509	
3	0	0	0	0	495	477	
4	0	0	0	0	492	469	
5	0	0	0	0	488	473	
6	0	0	0	0	481	492	
7	0	0	0	0	480	516	
8	0	0	0	0	483	519	
9	0	0	0	0	488	513	
10	0	0	0	0	490	505	
11	0	0	0	0	495	504	
12	0	0	0	0	514	513	
13	0	0	0	0	517	509	
14	0	0	0	0	514	512	
15	0	0	0	0	521	518	
0	0	0	0	0	516	501	
1	0	0	0	0	510	498	
2	0	0	0	0	498	509	
3	0	0	0	0	492	512	
4	0	0	0	0	496	513	
5	0	0	0	0	501	513	
6	0	0	0	0	491	499	
7	0	0	0	0	496	467	
8	0	0	0	0	507	467	
9	0	0	0	0	511	484	
10	0	0	0	0	543	502	
11	0	0	0	0	520	519	
12	0	0	0	0	511	534	
13	0	0	0	0	507	581	
14	0	0	0	0	511	588	
15	0	0	0	0	497	540	
0	0	0	0	0	495	525	
1	0	0	0	0	487	539	
2	0	0	0	0	462	510	
3	0	0	0	0	461	445	
4	0	0	0	0	495	425	
5	0	0	0	0	525	464	
6	0	0	0	0	529	495	
7	0	0	0	0	544	495	
8	0	0	0	0	553	503	
9	0	0	0	0	532	541	
10	0	0	0	0	527	616	
11	0	0	0	0	505	645	
12	0	0	0	0	521	661	
13	0	0	0	0	533	668	
14	0	0	0	0	480	553	
15	0	0	0	0	474	448	
0	0	0	0	0	543	423	
1	0	0	0	0	529	416	
2	0	0	0	0	491	439	
3	0	0	0	0	483	436	
4	0	0	0	0	476	450	
5	0	0	0	0	468	476	
6	0	0	0	0	475	507	
7	0	0	0	0	467	519	
8	0	0	0	0	489	542	
9	0	0	0	0	514	560	
10	0	0	0	0	519	529	
11	0	0	0	0	517	518	
12	0	0	0	0	511	467	
13	0	0	0	0	508	478	
14	0	0	0	0	509	504	
15	0	0	0	0	505	509	
0	0	0	0	0	481	513	
1	0	0	0	0	483	507	
2	0	0	0	0	508	504	
3	0	0	0	0	513	521	
4	0	0	0	0	511	528	
5	0	0	0	0	509	489	
6	0	0	0	0	504	460	
7	0	0	0	0	504	489	
8	0	0	0	0	512	522	
9	0	0	0	0	505	566	
10	0	0	0	0	493	561	
11	0	0	0	0	493	523	
12	0	0	0	0	494	489	
13	0	0	0	0	513	476	
14	0	0	0	0	547	478	
15	0	0	0	0	543	483	
0	0	0	0	0	536	511	
1	0	0	0	0	497	543	
2	0	0	0	0	472	577	
3	0	0	0	0	477	590	
4	0	0	0	0	496	611	
5	0	0	0	0	538	567	
6	0	0	0	0	553	473	
7	0	0	0	0	553	479	
8	0	0	0	0	521	511	
9	0	0	0	0	486	519	
10	0	0	0	0	482	525	
11	0	0	0	0	484	521	
12	0	0	0	0	490	510	
13	0	0	0	0	493	487	
14	0	0	0	0	487	452	
15	0	0	0	0	485	439	
0	0	0	0	0	484	441	
1	0	0	0	0	470	455	
2	0	0	0	0	494	458	
3	0	0	0	0	520	456	
4	0	0	0	0	519	470	
5	0	0	0	0	521	476	
6	0	0	0	0	539	496	
7	0	0	0	0	509	489	
8	0	0	0	0	495	515	
9	0	0	0	0	455	540	
10	0	0	0	0	441	511	
11	0	0	0	0	446	540	
12	0	0	0	0	488	559	
13	0	0	0	0	528	555	
14	0	0	0	0	552	560	
15	0	0	0	0	608	575	
0	0	0	0	0	562	636	
1	0	0	0	0	514	686	
2	0	0	0	0	515	702	
3	0	0	0	0	516	621	
4	0	0	0	0	539	515	
5	0	0	0	0	563	444	
6	0	0	0	0	555	430	
7	0	0	0	0	551	432	
8	0	0	0	0	511	432	
9	0	0	0	0	487	427	
10	0	0	0	0	456	440	
11	0	0	0	0	457	465	
12	0	0	0	0	466	489	
13	0	0	0	0	469	504	
14	0	0	0	0	472	504	
15	0	0	0	0	476	484	
0	0	0	0	0	475	512	
1	0	0	0	0	473	559	
2	0	0	0	0	480	536	
3	0	0	0	0	488	493	
4	0	0	0	0	508	465	
5	0	0	0	0	517	475	
6	0	0	0	0	535	493	
7	0	0	0	0	557	494	
8	0	0	0	0	550	471	
9	0	0	0	0	537	481	
10	0	0	0	0	495	504	
11	0	0	0	0	466	507	
12	0	0	0	0	469	497	
13	0	0	0	0	476	519	
14	0	0	0	0	487	581	
15	0	0	0	0	497	598	
0	0	0	0	0	494	544	
1	0	0	0	0	490	530	
2	0	0	0	0	524	525	
3	0	0	0	0	528	540	
4	0	0	0	0	551	527	
5	0	0	0	0	532	498	
6	0	0	0	0	508	494	
7	0	0	0	0	500	521	
8	0	0	0	0	499	531	
9	0	0	0	0	510	539	
10	0	0	0	0	510	529	
11	0	0	0	0	513	542	
12	0	0	0	0	515	549	
13	0	0	0	0	516	502	
14	0	0	0	0	507	479	
15	0	0	0	0	504	489	
0	0	0	0	0	493	491	
1	0	0	0	0	499	488	
2	0	0	0	0	510	501	
3	0	0	0	0	511	515	
4	0	0	0	0	499	493	
5	0	0	0	0	477	492	
6	0	0	0	0	478	505	
7	0	0	0	0	508	495	
8	0	0	0	0	477	469	
9	0	0	0	0	463	453	
10	0	0	0	0	494	448	
11	0	0	0	0	515	421	
12	0	0	0	0	528	428	
13	0	0	0	0	536	470	
14	0	0	0	0	533	537	
15	0	0	0	0	556	581	
0	0	0	0	0	534	614	
1	0	0	0	0	512	582	
2	0	0	0	0	513	609	
3	0	0	0	0	512	671	
4	0	0	0	0	521	606	
5	0	0	0	0	502	572	
6	0	0	0	0	481	560	
7	0	0	0	0	475	494	
8	0	0	0	0	479	441	
9	0	0	0	0	480	444	
10	0	0	0	0	493	463	
11	0	0	0	0	492	460	
12	0	0	0	0	491	465	
13	0	0	0	0	497	458	
14	0	0	0	0	502	451	
15	0	0	0	0	503	476	
0	0	0	0	0	496	516	
1	0	0	0	0	497	535	
2	0	0	0	0	496	561	
3	0	0	0	0	507	548	
4	0	0	0	0	506	551	
5	0	0	0	0	515	531	
6	0	0	0	0	504	474	
7	0	0	0	0	524	444	
8	0	0	0	0	583	428	
9	0	0	0	0	569	454	
10	0	0	0	0	560	470	
11	0	0	0	0	517	477	
12	0	0	0	0	500	542	
13	0	0	0	0	494	579	
14	0	0	0	0	486	577	
15	0	0	0	0	486	595	
0	0	0	0	0	475	611	
1	0	0	0	0	467	569	
2	0	0	0	0	479	572	
3	0	0	0	0	501	524	
4	0	0	0	0	460	483	
5	0	0	0	0	465	487	
6	0	0	0	0	491	493	
7	0	0	0	0	511	491	
8	0	0	0	0	527	462	
9	0	0	0	0	532	454	
10	0	0	0	0	533	490	
11	0	0	0	0	539	534	
12	0	0	0	0	504	577	
13	0	0	0	0	497	543	
14	0	0	0	0	495	498	
15	0	0	0	0	494	476	
0	0	0	0	0	487	486	
1	0	0	0	0	508	478	
2	0	0	0	0	525	471	
3	0	0	0	0	520	483	
4	0	0	0	0	500	503	
5	0	0	0	0	505	501	
6	0	0	0	0	510	483	
7	0	0	0	0	505	488	
8	0	0	0	0	502	500	
9	0	0	0	0	501	514	
10	0	0	0	0	502	531	
11	0	0	0	0	507	563	
12	0	0	0	0	511	565	
13	0	0	0	0	505	560	
14	0	0	0	0	501	514	
15	0	0	0	0	507	484	
0	0	0	0	0	505	490	
1	0	0	0	0	495	506	
2	0	0	0	0	499	515	
3	0	0	0	0	511	509	
4	0	0	0	0	512	521	
5	0	0	0	0	511	511	
6	0	0	0	0	515	477	
7	0	0	0	0	507	466	
8	0	0	0	0	501	468	
9	0	0	0	0	497	479	
10	0	0	0	0	494	504	
11	0	0	0	0	497	567	
12	0	0	0	0	504	662	
13	0	0	0	0	502	634	
14	0	0	0	0	496	567	
15	0	0	0	0	508	545	
0	0	0	0	0	527	505	
1	0	0	0	0	538	489	
2	0	0	0	0	512	488	
3	0	0	0	0	492	458	
4	0	0	0	0	516	459	
5	0	0	0	0	522	468	
6	0	0	0	0	506	478	
7	0	0	0	0	494	485	
8	0	0	0	0	499	491	
9	0	0	0	0	499	500	
10	0	0	0	0	502	503	
11	0	0	0	0	504	493	
12	0	0	0	0	511	507	
13	0	0	0	0	511	535	
14	0	0	0	0	502	563	
15	0	0	0	0	494	585	
0	0	0	0	0	487	558	
1	0	0	0	0	478	487	
2	0	0	0	0	486	462	
3	0	0	0	0	511	457	
4	0	0	0	0	531	468	
5	0	0	0	0	526	483	
6	0	0	0	0	509	509	
7	0	0	0	0	517	546	
8	0	0	0	0	515	553	
9	0	0	0	0	507	539	
10	0	0	0	0	496	487	
11	0	0	0	0	489	369	
12	0	0	0	0	489	351	
13	0	0	0	0	496	400	
14	0	0	0	0	509	484	
15	0	0	0	0	502	560	
0	0	0	0	0	504	645	
1	0	0	0	0	516	708	
2	0	0	0	0	515	764	
3	0	0	0	0	499	729	
4	0	0	0	0	487	646	
5	0	0	0	0	500	572	
6	0	0	0	0	525	441	
7	0	0	0	0	542	368	
8	0	0	0	0	545	382	
9	0	0	0	0	551	420	
10	0	0	0	0	518	455	
11	0	0	0	0	512	467	
12	0	0	0	0	512	483	
13	0	0	0	0	492	511	
14	0	0	0	0	480	541	
15	0	0	0	0	455	521	
0	0	0	0	0	460	510	
1	0	0	0	0	478	492	
2	0	0	0	0	496	477	
3	0	0	0	0	497	487	
4	0	0	0	0	499	495	
5	0	0	0	0	499	499	
6	0	0	0	0	496	494	
7	0	0	0	0	496	491	
8	0	0	0	0	499	489	
9	0	0	0	0	502	500	
10	0	0	0	0	508	519	
11	0	0	0	0	515	545	
12	0	0	0	0	531	539	
13	0	0	0	0	534	517	
14	0	0	0	0	532	509	
15	0	0	0	0	529	513	
0	0	0	0	0	519	521	
1	0	0	0	0	492	521	
2	0	0	0	0	489	522	
3	0	0	0	0	497	515	
4	0	0	0	0	499	514	
5	0	0	0	0	504	511	
6	0	0	0	0	504	508	
7	0	0	0	0	503	515	
8	0	0	0	0	501	525	
9	0	0	0	0	505	523	
10	0	0	0	0	511	508	
11	0	0	0	0	523	501	
12	0	0	0	0	515	487	
13	0	0	0	0	503	486	
14	0	0	0	0	510	472	
15	0	0	0	0	497	488	
0	0	0	0	0	491	505	
1	0	0	0	0	492	502	
2	0	0	0	0	498	545	
3	0	0	0	0	497	573	
4	0	0	0	0	492	570	
5	0	0	0	0	507	554	
6	0	0	0	0	535	544	
7	0	0	0	0	559	499	
8	0	0	0	0	503	489	
9	0	0	0	0	476	496	
10	0	0	0	0	475	477	
11	0	0	0	0	486	457	
12	0	0	0	0	497	469	
13	0	0	0	0	502	532	
14	0	0	0	0	498	606	
15	0	0	0	0	530	569	
0	0	0	0	0	588	519	
1	0	0	0	0	567	517	
2	0	0	0	0	535	541	
3	0	0	0	0	509	525	
4	0	0	0	0	488	518	
5	0	0	0	0	483	508	
6	0	0	0	0	483	459	
7	0	0	0	0	487	471	
8	0	0	0	0	491	479	
9	0	0	0	0	491	479	
10	0	0	0	0	496	509	
11	0	0	0	0	500	520	
12	0	0	0	0	500	528	
13	0	0	0	0	492	525	
14	0	0	0	0	481	511	
15	0	0	0	0	493	494	
0	0	0	0	0	492	471	
1	0	0	0	0	488	443	
2	0	0	0	0	509	431	
3	0	0	0	0	526	455	
4	0	0	0	0	537	446	
5	0	0	0	0	532	520	
6	0	0	0	0	521	603	
7	0	0	0	0	527	587	
8	0	0	0	0	516	583	
9	0	0	0	0	474	625	
10	0	0	0	0	467	687	
11	0	0	0	0	470	617	
12	0	0	0	0	488	535	
13	0	0	0	0	505	503	
14	0	0	0	0	511	479	
15	0	0	0	0	522	475	
0	0	0	0	0	540	494	
1	0	0	0	0	531	485	
2	0	0	0	0	514	463	
3	0	0	0	0	495	455	
4	0	0	0	0	484	454	
5	0	0	0	0	496	467	
6	0	0	0	0	502	478	
7	0	0	0	0	502	483	
8	0	0	0	0	500	478	
9	0	0	0	0	502	485	
10	0	0	0	0	503	496	
11	0	0	0	0	505	518	
12	0	0	0	0	503	532	
13	0	0	0	0	504	537	
14	0	0	0	0	510	545	
15	0	0	0	0	514	543	
0	0	0	0	0	518	520	
1	0	0	0	0	518	513	
2	0	0	0	0	511	510	
3	0	0	0	0	512	504	
4	0	0	0	0	506	507	
5	0	0	0	0	503	517	
6	0	0	0	0	501	510	
7	0	0	0	0	491	505	
8	0	0	0	0	481	484	
9	0	0	0	0	482	467	
10	0	0	0	0	504	444	
11	0	0	0	0	508	436	
12	0	0	0	0	499	447	
13	0	0	0	0	507	490	
14	0	0	0	0	508	550	
15	0	0	0	0	491	610	
0	0	0	0	0	513	632	
1	0	0	0	0	525	623	
2	0	0	0	0	533	571	
3	0	0	0	0	548	593	
4	0	0	0	0	568	574	
5	0	0	0	0	571	523	
6	0	0	0	0	513	489	
7	0	0	0	0	504	467	
8	0	0	0	0	449	483	
9	0	0	0	0	457	478	
10	0	0	0	0	482	461	
11	0	0	0	0	480	476	
12	0	0	0	0	481	484	
13	0	0	0	0	479	492	
14	0	0	0	0	483	506	
15	0	0	0	0	487	523	
0	0	0	0	0	504	545	
1	0	0	0	0	510	544	
2	0	0	0	0	513	489	
3	0	0	0	0	504	465	
4	0	0	0	0	518	476	
5	0	0	0	0	518	486	
6	0	0	0	0	500	484	
7	0	0	0	0	505	494	
8	0	0	0	0	500	516	
9	0	0	0	0	513	553	
10	0	0	0	0	518	572	
11	0	0	0	0	513	531	
12	0	0	0	0	512	501	
13	0	0	0	0	512	487	
14	0	0	0	0	506	494	
15	0	0	0	0	500	520	
0	0	0	0	0	502	538	
1	0	0	0	0	504	551	
2	0	0	0	0	502	564	
3	0	0	0	0	502	547	
4	0	0	0	0	503	462	
5	0	0	0	0	510	435	
6	0	0	0	0	514	447	
7	0	0	0	0	513	465	
8	0	0	0	0	508	488	
9	0	0	0	0	501	519	
10	0	0	0	0	504	552	
11	0	0	0	0	507	566	
12	0	0	0	0	505	525	
13	0	0	0	0	504	506	
14	0	0	0	0	505	511	
15	0	0	0	0	507	524	
0	0	0	0	0	500	503	
1	0	0	0	0	502	498	
2	0	0	0	0	507	504	
3	0	0	0	0	514	507	
4	0	0	0	0	514	513	
5	0	0	0	0	498	536	
6	0	0	0	0	499	552	
7	0	0	0	0	505	553	
8	0	0	0	0	500	529	
9	0	0	0	0	502	535	
10	0	0	0	0	502	522	
11	0	0	0	0	510	506	
12	0	0	0	0	517	497	
13	0	0	0	0	522	488	
14	0	0	0	0	500	486	
15	0	0	0	0	489	498	
0	0	0	0	0	498	505	
1	0	0	0	0	518	497	
2	0	0	0	0	532	483	
3	0	0	0	0	513	489	
4	0	0	0	0	506	486	
5	0	0	0	0	504	496	
6	0	0	0	0	502	523	
7	0	0	0	0	496	531	
8	0	0	0	0	480	541	
9	0	0	0	0	494	524	
10	0	0	0	0	507	523	
11	0	0	0	0	493	514	
12	0	0	0	0	506	505	
13	0	0	0	0	523	511	
14	0	0	0	0	518	504	
15	0	0	0	0	506	503	
0	0	0	0	0	511	511	
1	0	0	0	0	513	531	
2	0	0	0	0	506	525	
3	0	0	0	0	503	503	
4	0	0	0	0	503	496	
5	0	0	0	0	503	502	
6	0	0	0	0	502	483	
7	0	0	0	0	493	471	
8	0	0	0	0	483	487	
9	0	0	0	0	497	518	
10	0	0	0	0	510	523	
11	0	0	0	0	507	527	
12	0	0	0	0	512	527	
13	0	0	0	0	526	531	
14	0	0	0	0	516	531	
15	0	0	0	0	501	491	
0	0	0	0	0	493	458	
1	0	0	0	0	499	434	
2	0	0	0	0	502	471	
3	0	0	0	0	508	524	
4	0	0	0	0	515	590	
5	0	0	0	0	505	658	
6	0	0	0	0	504	648	
7	0	0	0	0	496	532	
8	0	0	0	0	487	499	
9	0	0	0	0	502	502	
10	0	0	0	0	511	509	
11	0	0	0	0	511	497	
12	0	0	0	0	522	500	
13	0	0	0	0	501	475	
14	0	0	0	0	487	469	
15	0	0	0	0	510	506	
0	0	0	0	0	527	537	
1	0	0	0	0	545	547	
2	0	0	0	0	516	531	
3	0	0	0	0	484	528	
4	0	0	0	0	483	505	
5	0	0	0	0	482	494	
6	0	0	0	0	482	477	
7	0	0	0	0	491	462	
8	0	0	0	0	494	472	
9	0	0	0	0	492	489	
10	0	0	0	0	500	498	
11	0	0	0	0	516	531	
12	0	0	0	0	520	517	
13	0	0	0	0	523	511	
14	0	0	0	0	530	503	
15	0	0	0	0	536	507	
0	0	0	0	0	550	511	
1	0	0	0	0	538	518	
2	0	0	0	0	510	520	
3	0	0	0	0	485	523	
4	0	0	0	0	482	487	
5	0	0	0	0	492	476	
6	0	0	0	0	503	483	
7	0	0	0	0	506	488	
8	0	0	0	0	498	501	
9	0	0	0	0	507	511	
10	0	0	0	0	515	547	
11	0	0	0	0	513	591	
12	0	0	0	0	503	584	
13	0	0	0	0	496	533	
14	0	0	0	0	489	524	
15	0	0	0	0	489	503	
0	0	0	0	0	491	484	
1	0	0	0	0	497	498	
2	0	0	0	0	509	501	
3	0	0	0	0	514	524	
4	0	0	0	0	505	533	
5	0	0	0	0	502	511	
6	0	0	0	0	504	508	
7	0	0	0	0	510	519	
8	0	0	0	0	520	515	
9	0	0	0	0	499	502	
10	0	0	0	0	489	481	
11	0	0	0	0	494	467	
12	0	0	0	0	504	463	
13	0	0	0	0	512	471	
14	0	0	0	0	513	499	
15	0	0	0	0	511	536	
0	0	0	0	0	508	551	
1	0	0	0	0	508	574	
2	0	0	0	0	509	576	
3	0	0	0	0	502	502	
4	0	0	0	0	498	457	
5	0	0	0	0	501	469	
6	0	0	0	0	506	468	
7	0	0	0	0	507	468	
8	0	0	0	0	509	492	
9	0	0	0	0	513	521	
10	0	0	0	0	511	551	
11	0	0	0	0	511	547	
12	0	0	0	0	510	543	
13	0	0	0	0	499	567	
14	0	0	0	0	500	570	
15	0	0	0	0	503	536	
0	0	0	0	0	487	505	
1	0	0	0	0	484	496	
2	0	0	0	0	495	496	
3	0	0	0	0	511	495	
4	0	0	0	0	515	499	
5	0	0	0	0	507	504	
6	0	0	0	0	500	510	
7	0	0	0	0	509	486	
8	0	0	0	0	511	470	
9	0	0	0	0	516	491	
10	0	0	0	0	517	493	
11	0	0	0	0	518	491	
12	0	0	0	0	507	479	
13	0	0	0	0	502	496	
14	0	0	0	0	503	525	
15	0	0	0	0	499	569	
0	0	0	0	0	500	574	
1	0	0	0	0	521	529	
2	0	0	0	0	512	518	
3	0	0	0	0	495	513	
4	0	0	0	0	494	527	
5	0	0	0	0	502	544	
6	0	0	0	0	499	529	
7	0	0	0	0	486	514	
8	0	0	0	0	505	512	
9	0	0	0	0	512	489	
10	0	0	0	0	505	396	
11	0	0	0	0	512	371	
12	0	0	0	0	511	418	
13	0	0	0	0	515	484	
14	0	0	0	0	521	551	
15	0	0	0	0	504	608	
0	0	0	0	0	499	664	
1	0	0	0	0	493	767	
2	0	0	0	0	470	668	
3	0	0	0	0	511	542	
4	0	0	0	0	537	456	
5	0	0	0	0	520	432	
6	0	0	0	0	552	435	
7	0	0	0	0	529	455	
8	0	0	0	0	510	481	
9	0	0	0	0	510	491	
10	0	0	0	0	483	502	
11	0	0	0	0	481	496	
12	0	0	0	0	493	486	
13	0	0	0	0	507	486	
14	0	0	0	0	510	491	
15	0	0	0	0	504	491	
0	0	0	0	0	495	494	
1	0	0	0	0	489	498	
2	0	0	0	0	480	507	
3	0	0	0	0	472	511	
4	0	0	0	0	482	499	
5	0	0	0	0	504	491	
6	0	0	0	0	515	476	
7	0	0	0	0	504	481	
8	0	0	0	0	525	494	
9	0	0	0	0	523	501	
10	0	0	0	0	515	532	
11	0	0	0	0	510	560	
12	0	0	0	0	508	571	
13	0	0	0	0	504	606	
14	0	0	0	0	509	573	
15	0	0	0	0	502	512	
0	0	0	0	0	504	473	
1	0	0	0	0	512	489	
2	0	0	0	0	509	510	
3	0	0	0	0	511	505	
4	0	0	0	0	513	511	
5	0	0	0	0	514	513	
6	0	0	0	0	518	504	
7	0	0	0	0	504	529	
8	0	0	0	0	498	532	
9	0	0	0	0	491	488	
10	0	0	0	0	481	474	
11	0	0	0	0	480	481	
12	0	0	0	0	492	502	
13	0	0	0	0	502	523	
14	0	0	0	0	511	522	
15	0	0	0	0	515	497	
0	0	0	0	0	508	454	
1	0	0	0	0	516	440	
2	0	0	0	0	523	475	
3	0	0	0	0	515	538	
4	0	0	0	0	510	556	
5	0	0	0	0	499	545	
6	0	0	0	0	511	566	
7	0	0	0	0	515	628	
8	0	0	0	0	521	627	
9	0	0	0	0	491	518	
10	0	0	0	0	480	475	
11	0	0	0	0	504	460	
12	0	0	0	0	500	476	
13	0	0	0	0	510	502	
14	0	0	0	0	519	538	
15	0	0	0	0	518	556	
0	0	0	0	0	499	550	
1	0	0	0	0	484	509	
2	0	0	0	0	493	468	
3	0	0	0	0	504	453	
4	0	0	0	0	502	467	
5	0	0	0	0	497	497	
6	0	0	0	0	499	499	
7	0	0	0	0	500	505	
8	0	0	0	0	501	508	
9	0	0	0	0	503	511	
10	0	0	0	0	507	511	
11	0	0	0	0	511	512	
12	0	0	0	0	508	509	
13	0	0	0	0	507	505	
14	0	0	0	0	510	512	
15	0	0	0	0	513	515	
0	0	0	0	0	516	516	
1	0	0	0	0	516	512	
2	0	0	0	0	513	510	
3	0	0	0	0	512	518	
4	0	0	0	0	508	513	
5	0	0	0	0	503	514	
6	0	0	0	0	499	493	
7	0	0	0	0	501	472	
8	0	0	0	0	506	467	
9	0	0	0	0	496	471	
10	0	0	0	0	501	505	
11	0	0	0	0	501	526	
12	0	0	0	0	495	534	
13	0	0	0	0	489	545	
14	0	0	0	0	496	561	
15	0	0	0	0	501	563	
0	0	0	0	0	479	557	
1	0	0	0	0	478	553	
2	0	0	0	0	492	483	
3	0	0	0	0	537	468	
4	0	0	0	0	566	517	
5	0	0	0	0	572	556	
6	0	0	0	0	541	502	
7	0	0	0	0	527	478	
8	0	0	0	0	520	503	
9	0	0	0	0	510	509	
10	0	0	0	0	499	513	
11	0	0	0	0	487	511	
12	0	0	0	0	479	506	
13	0	0	0	0	487	539	
14	0	0	0	0	486	593	
15	0	0	0	0	496	582	
0	0	0	0	0	499	545	
1	0	0	0	0	499	507	
2	0	0	0	0	510	468	
3	0	0	0	0	519	419	
4	0	0	0	0	492	404	
5	0	0	0	0	488	421	
6	0	0	0	0	489	433	
7	0	0	0	0	493	464	
8	0	0	0	0	504	483	
9	0	0	0	0	509	538	
10	0	0	0	0	508	558	
11	0	0	0	0	505	566	
12	0	0	0	0	507	582	
13	0	0	0	0	506	538	
14	0	0	0	0	507	528	
15	0	0	0	0	509	544	
0	0	0	0	0	514	548	
1	0	0	0	0	517	581	
2	0	0	0	0	507	562	
3	0	0	0	0	502	512	
4	0	0	0	0	501	495	
5	0	0	0	0	499	478	
6	0	0	0	0	496	460	
7	0	0	0	0	508	452	
8	0	0	0	0	511	476	
9	0	0	0	0	507	519	
10	0	0	0	0	506	554	
11	0	0	0	0	511	524	
12	0	0	0	0	508	520	
13	0	0	0	0	510	517	
14	0	0	0	0	494	492	
15	0	0	0	0	486	484	
0	0	0	0	0	503	480	
1	0	0	0	0	511	488	
2	0	0	0	0	509	498	
3	0	0	0	0	504	500	
4	0	0	0	0	501	527	
5	0	0	0	0	504	557	
6	0	0	0	0	509	600	
7	0	0	0	0	513	559	
8	0	0	0	0	515	510	
9	0	0	0	0	512	496	
10	0	0	0	0	500	496	
11	0	0	0	0	485	514	
12	0	0	0	0	499	520	
13	0	0	0	0	511	500	
14	0	0	0	0	492	483	
15	0	0	0	0	503	485	
0	0	0	0	0	512	463	
1	0	0	0	0	518	449	
2	0	0	0	0	524	467	
3	0	0	0	0	508	501	
4	0	0	0	0	499	527	
5	0	0	0	0	500	524	
6	0	0	0	0	492	545	
7	0	0	0	0	510	572	
8	0	0	0	0	516	568	
9	0	0	0	0	513	543	
10	0	0	0	0	508	538	
11	0	0	0	0	507	532	
12	0	0	0	0	500	518	
13	0	0	0	0	485	508	
14	0	0	0	0	480	509	
15	0	0	0	0	487	490	
0	0	0	0	0	496	488	
1	0	0	0	0	498	508	
2	0	0	0	0	511	491	
3	0	0	0	0	545	409	
4	0	0	0	0	562	380	
5	0	0	0	0	538	388	
6	0	0	0	0	517	441	
7	0	0	0	0	487	515	
8	0	0	0	0	487	574	
9	0	0	0	0	518	629	
10	0	0	0	0	514	703	
11	0	0	0	0	491	723	
12	0	0	0	0	481	588	
13	0	0	0	0	483	489	
14	0	0	0	0	508	462	
15	0	0	0	0	521	462	
0	0	0	0	0	536	473	
1	0	0	0	0	536	526	
2	0	0	0	0	516	568	
3	0	0	0	0	497	569	
4	0	0	0	0	483	537	
5	0	0	0	0	479	492	
6	0	0	0	0	481	451	
7	0	0	0	0	495	422	
8	0	0	0	0	500	409	
9	0	0	0	0	501	414	
10	0	0	0	0	497	411	
11	0	0	0	0	496	427	
12	0	0	0	0	497	492	
13	0	0	0	0	496	524	
14	0	0	0	0	501	561	
15	0	0	0	0	516	615	
0	0	0	0	0	520	618	
1	0	0	0	0	510	622	
2	0	0	0	0	500	579	
3	0	0	0	0	498	534	
4	0	0	0	0	499	539	
5	0	0	0	0	499	529	
6	0	0	0	0	504	488	
7	0	0	0	0	505	478	
8	0	0	0	0	511	478	
9	0	0	0	0	524	479	
10	0	0	0	0	524	487	
11	0	0	0	0	519	491	
12	0	0	0	0	511	496	
13	0	0	0	0	509	510	
14	0	0	0	0	499	508	
15	0	0	0	0	496	492	
0	0	0	0	0	515	493	
1	0	0	0	0	519	498	
2	0	0	0	0	512	520	
3	0	0	0	0	514	505	
4	0	0	0	0	503	482	
5	0	0	0	0	495	488	
6	0	0	0	0	483	500	
7	0	0	0	0	481	512	
8	0	0	0	0	498	530	
9	0	0	0	0	502	531	
10	0	0	0	0	502	546	
11	0	0	0	0	499	558	
12	0	0	0	0	514	542	
13	0	0	0	0	509	532	
14	0	0	0	0	496	515	
15	0	0	0	0	496	500	
0	0	0	0	0	499	483	
1	0	0	0	0	505	494	
2	0	0	0	0	515	512	
3	0	0	0	0	524	518	
4	0	0	0	0	529	520	
5	0	0	0	0	523	510	
6	0	0	0	0	525	507	
7	0	0	0	0	511	503	
8	0	0	0	0	500	479	
9	0	0	0	0	494	494	
10	0	0	0	0	492	528	
11	0	0	0	0	487	530	
12	0	0	0	0	487	507	
13	0	0	0	0	473	528	
14	0	0	0	0	479	559	
15	0	0	0	0	511	556	
0	0	0	0	0	521	520	
1	0	0	0	0	493	477	
2	0	0	0	0	527	464	
3	0	0	0	0	524	495	
4	0	0	0	0	508	523	
5	0	0	0	0	512	503	
6	0	0	0	0	533	493	
7	0	0	0	0	513	482	
8	0	0	0	0	507	494	
9	0	0	0	0	529	499	
10	0	0	0	0	522	509	
11	0	0	0	0	518	527	
12	0	0	0	0	512	532	
13	0	0	0	0	489	547	
14	0	0	0	0	512	557	
15	0	0	0	0	497	537	
0	0	0	0	0	480	508	
1	0	0	0	0	485	499	
2	0	0	0	0	487	491	
3	0	0	0	0	484	494	
4	0	0	0	0	493	503	
5	0	0	0	0	504	505	
6	0	0	0	0	521	506	
7	0	0	0	0	520	494	
8	0	0	0	0	513	474	
9	0	0	0	0	506	481	
10	0	0	0	0	510	492	
11	0	0	0	0	508	504	
12	0	0	0	0	496	519	
13	0	0	0	0	488	536	
14	0	0	0	0	491	559	
15	0	0	0	0	498	591	
0	0	0	0	0	499	555	
1	0	0	0	0	496	501	
2	0	0	0	0	518	478	
3	0	0	0	0	540	486	
4	0	0	0	0	520	491	
5	0	0	0	0	536	510	
6	0	0	0	0	531	496	
7	0	0	0	0	504	483	
8	0	0	0	0	491	492	
9	0	0	0	0	494	528	
10	0	0	0	0	498	530	
11	0	0	0	0	506	522	
12	0	0	0	0	508	543	
13	0	0	0	0	511	559	
14	0	0	0	0	512	556	
15	0	0	0	0	503	557	
0	0	0	0	0	490	519	
1	0	0	0	0	489	478	
2	0	0	0	0	487	463	
3	0	0	0	0	492	482	
4	0	0	0	0	494	489	
5	0	0	0	0	501	505	
6	0	0	0	0	512	529	
7	0	0	0	0	507	542	
8	0	0	0	0	504	521	
9	0	0	0	0	511	507	
10	0	0	0	0	509	486	
11	0	0	0	0	499	485	
12	0	0	0	0	507	499	
13	0	0	0	0	517	515	
14	0	0	0	0	515	524	
15	0	0	0	0	521	555	
0	0	0	0	0	524	537	
1	0	0	0	0	504	507	
2	0	0	0	0	494	504	
3	0	0	0	0	503	502	
4	0	0	0	0	513	499	
5	0	0	0	0	500	504	
6	0	0	0	0	499	504	
7	0	0	0	0	500	504	
8	0	0	0	0	499	506	
9	0	0	0	0	504	508	
10	0	0	0	0	508	506	
11	0	0	0	0	507	504	
12	0	0	0	0	504	505	
13	0	0	0	0	504	500	
14	0	0	0	0	509	492	
15	0	0	0	0	506	490	
0	0	0	0	0	501	505	
1	0	0	0	0	505	512	
2	0	0	0	0	512	513	
3	0	0	0	0	513	521	
4	0	0	0	0	510	522	
5	0	0	0	0	505	536	
6	0	0	0	0	510	568	
7	0	0	0	0	505	562	
8	0	0	0	0	498	521	
9	0	0	0	0	495	479	
10	0	0	0	0	467	476	
11	0	0	0	0	478	501	
12	0	0	0	0	514	521	
13	0	0	0	0	526	517	
14	0	0	0	0	519	502	
15	0	0	0	0	508	503	
0	0	0	0	0	508	516	
1	0	0	0	0	509	516	
2	0	0	0	0	511	515	
3	0	0	0	0	500	504	
4	0	0	0	0	497	508	
5	0	0	0	0	504	515	
6	0	0	0	0	508	518	
7	0	0	0	0	512	522	
8	0	0	0	0	511	526	
9	0	0	0	0	500	514	
10	0	0	0	0	509	516	
11	0	0	0	0	506	520	
12	0	0	0	0	505	514	
13	0	0	0	0	498	499	
14	0	0	0	0	497	496	
15	0	0	0	0	499	507	
0	0	0	0	0	499	512	
1	0	0	0	0	496	509	
2	0	0	0	0	499	503	
3	0	0	0	0	515	503	
4	0	0	0	0	532	495	
5	0	0	0	0	525	500	
6	0	0	0	0	515	509	
7	0	0	0	0	513	515	
8	0	0	0	0	507	515	
9	0	0	0	0	501	523	
10	0	0	0	0	507	534	
11	0	0	0	0	505	533	
12	0	0	0	0	493	514	
13	0	0	0	0	505	501	
14	0	0	0	0	512	493	
15	0	0	0	0	492	497	
0	0	0	0	0	501	508	
1	0	0	0	0	510	519	
2	0	0	0	0	508	523	
3	0	0	0	0	499	517	
4	0	0	0	0	501	516	
5	0	0	0	0	496	519	
6	0	0	0	0	495	526	
7	0	0	0	0	503	523	
8	0	0	0	0	504	503	
9	0	0	0	0	504	494	
10	0	0	0	0	500	497	
11	0	0	0	0	506	503	
12	0	0	0	0	509	507	
13	0	0	0	0	505	508	
14	0	0	0	0	498	509	
15	0	0	0	0	507	512	
0	0	0	0	0	504	515	
1	0	0	0	0	503	519	
2	0	0	0	0	499	516	
3	0	0	0	0	509	517	
4	0	0	0	0	530	517	
5	0	0	0	0	523	513	
6	0	0	0	0	515	513	
7	0	0	0	0	506	509	
8	0	0	0	0	513	512	
9	0	0	0	0	513	511	
10	0	0	0	0	510	513	
11	0	0	0	0	515	512	
12	0	0	0	0	515	509	
13	0	0	0	0	499	505	
14	0	0	0	0	495	507	
15	0	0	0	0	502	507	
0	0	0	0	0	489	505	
1	0	0	0	0	494	512	
2	0	0	0	0	505	513	
3	0	0	0	0	504	511	
4	0	0	0	0	500	516	
5	0	0	0	0	507	517	
6	0	0	0	0	504	513	
7	0	0	0	0	504	518	
8	0	0	0	0	504	531	
9	0	0	0	0	499	531	
10	0	0	0	0	507	526	
11	0	0	0	0	514	518	
12	0	0	0	0	507	504	
13	0	0	0	0	507	490	
14	0	0	0	0	510	491	
15	0	0	0	0	505	494	
0	0	0	0	0	501	500	
1	0	0	0	0	495	502	
2	0	0	0	0	491	507	
3	0	0	0	0	494	518	
4	0	0	0	0	509	531	
5	0	0	0	0	508	532	
6	0	0	0	0	499	527	
7	0	0	0	0	508	519	
8	0	0	0	0	510	510	
9	0	0	0	0	504	496	
10	0	0	0	0	505	492	
11	0	0	0	0	509	500	
12	0	0	0	0	514	518	
13	0	0	0	0	510	517	
14	0	0	0	0	506	512	
15	0	0	0	0	505	514	
0	0	0	0	0	503	519	
1	0	0	0	0	505	523	
2	0	0	0	0	507	519	
3	0	0	0	0	510	520	
4	0	0	0	0	510	514	
5	0	0	0	0	500	511	
6	0	0	0	0	497	508	
7	0	0	0	0	497	508	
8	0	0	0	0	506	510	
9	0	0	0	0	511	511	
10	0	0	0	0	511	509	
11	0	0	0	0	509	499	
12	0	0	0	0	509	499	
13	0	0	0	0	509	500	
14	0	0	0	0	512	511	
15	0	0	0	0	511	510	
0	0	0	0	0	500	513	
1	0	0	0	0	495	514	
2	0	0	0	0	499	516	
3	0	0	0	0	502	516	
4	0	0	0	0	502	504	
5	0	0	0	0	503	502	
6	0	0	0	0	504	504	
7	0	0	0	0	508	513	
8	0	0	0	0	510	515	
9	0	0	0	0	514	510	
10	0	0	0	0	512	512	
11	0	0	0	0	509	511	
12	0	0	0	0	507	505	
13	0	0	0	0	508	505	
14	0	0	0	0	512	514	
15	0	0	0	0	511	519	
0	0	0	0	0	505	517	
1	0	0	0	0	502	529	
2	0	0	0	0	498	521	
3	0	0	0	0	498	516	
4	0	0	0	0	498	521	
5	0	0	0	0	499	524	
6	0	0	0	0	498	519	
7	0	0	0	0	504	518	
8	0	0	0	0	504	520	
9	0	0	0	0	506	509	
10	0	0	0	0	511	504	
11	0	0	0	0	512	501	
12	0	0	0	0	508	504	
13	0	0	0	0	508	504	
14	0	0	0	0	505	505	
15	0	0	0	0	503	506	
0	0	0	0	0	502	509	
1	0	0	0	0	499	504	
2	0	0	0	0	504	506	
3	0	0	0	0	511	514	
4	0	0	0	0	511	518	
5	0	0	0	0	506	517	
6	0	0	0	0	502	518	
7	0	0	0	0	505	513	
8	0	0	0	0	511	512	
9	0	0	0	0	513	514	
10	0	0	0	0	512	518	
11	0	0	0	0	508	513	
12	0	0	0	0	505	514	
13	0	0	0	0	503	513	
14	0	0	0	0	501	511	
15	0	0	0	0	501	509	
0	0	0	0	0	503	511	
1	0	0	0	0	500	508	
2	0	0	0	0	504	509	
3	0	0	0	0	499	508	
4	0	0	0	0	501	509	
5	0	0	0	0	495	515	
6	0	0	0	0	499	515	
7	0	0	0	0	507	513	
8	0	0	0	0	520	511	
9	0	0	0	0	527	514	
10	0	0	0	0	518	523	
11	0	0	0	0	503	521	
12	0	0	0	0	495	515	
13	0	0	0	0	501	507	
14	0	0	0	0	498	504	
15	0	0	0	0	500	499	
0	0	0	0	0	504	499	
1	0	0	0	0	499	501	
2	0	0	0	0	500	508	
3	0	0	0	0	512	518	
4	0	0	0	0	512	517	
5	0	0	0	0	509	514	
6	0	0	0	0	504	516	
7	0	0	0	0	502	510	
8	0	0	0	0	504	515	
9	0	0	0	0	504	514	
10	0	0	0	0	502	505	
11	0	0	0	0	511	500	
12	0	0	0	0	519	500	
13	0	0	0	0	510	504	
14	0	0	0	0	503	505	
15	0	0	0	0	497	512	
0	0	0	0	0	502	519	
1	0	0	0	0	506	526	
2	0	0	0	0	512	534	
3	0	0	0	0	521	527	
4	0	0	0	0	522	521	
5	0	0	0	0	522	512	
6	0	0	0	0	516	503	
7	0	0	0	0	503	503	
8	0	0	0	0	496	508	
9	0	0	0	0	472	509	
10	0	0	0	0	459	514	
11	0	0	0	0	474	517	
12	0	0	0	0	502	508	
13	0	0	0	0	515	510	
14	0	0	0	0	516	512	
15	0	0	0	0	532	513	
0	0	0	0	0	515	512	
1	0	0	0	0	497	510	
2	0	0	0	0	504	510	
3	0	0	0	0	509	512	
4	0	0	0	0	507	515	
5	0	0	0	0	505	518	
6	0	0	0	0	506	512	
7	0	0	0	0	505	513	
8	0	0	0	0	505	515	
9	0	0	0	0	507	510	
10	0	0	0	0	506	503	
11	0	0	0	0	505	503	
12	0	0	0	0	504	501	
13	0	0	0	0	504	499	
14	0	0	0	0	508	508	
15	0	0	0	0	506	519	
0	0	0	0	0	507	520	
1	0	0	0	0	507	516	
2	0	0	0	0	505	509	
3	0	0	0	0	508	510	
4	0	0	0	0	507	512	
5	0	0	0	0	505	512	
6	0	0	0	0	502	513	
7	0	0	0	0	501	519	
8	0	0	0	0	498	523	
9	0	0	0	0	497	528	
10	0	0	0	0	505	519	
11	0	0	0	0	509	510	
12	0	0	0	0	510	507	
13	0	0	0	0	510	511	
14	0	0	0	0	507	513	
15	0	0	0	0	512	513	
0	0	0	0	0	515	512	
1	0	0	0	0	509	508	
2	0	0	0	0	508	510	
3	0	0	0	0	507	507	
4	0	0	0	0	505	515	
5	0	0	0	0	502	510	
6	0	0	0	0	501	509	
7	0	0	0	0	497	501	
8	0	0	0	0	497	506	
9	0	0	0	0	497	510	
10	0	0	0	0	500	520	
11	0	0	0	0	503	522	
12	0	0	0	0	503	512	
13	0	0	0	0	506	507	
14	0	0	0	0	516	507	
15	0	0	0	0	516	507	
0	0	0	0	0	515	507	
1	0	0	0	0	508	510	
2	0	0	0	0	496	513	
3	0	0	0	0	503	513	
4	0	0	0	0	519	514	
5	0	0	0	0	520	513	
6	0	0	0	0	503	512	
7	0	0	0	0	497	511	
8	0	0	0	0	496	512	
9	0	0	0	0	495	512	
10	0	0	0	0	504	511	
11	0	0	0	0	507	514	
12	0	0	0	0	504	514	
13	0	0	0	0	503	516	
14	0	0	0	0	502	515	
15	0	0	0	0	504	514	
0	0	0	0	0	504	516	
1	0	0	0	0	505	518	
2	0	0	0	0	504	512	
3	0	0	0	0	502	509	
4	0	0	0	0	504	505	
5	0	0	0	0	504	506	
6	0	0	0	0	506	510	
7	0	0	0	0	505	510	
8	0	0	0	0	506	510	
9	0	0	0	0	507	510	
10	0	0	0	0	508	511	
11	0	0	0	0	513	511	
12	0	0	0	0	511	511	
13	0	0	0	0	505	512	
14	0	0	0	0	505	514	
15	0	0	0	0	504	516	
0	0	0	0	0	505	515	
1	0	0	0	0	504	515	
2	0	0	0	0	504	515	
3	0	0	0	0	505	510	
4	0	0	0	0	507	513	
5	0	0	0	0	508	514	
6	0	0	0	0	506	512	
7	0	0	0	0	505	510	
8	0	0	0	0	507	507	
9	0	0	0	0	504	506	
10	0	0	0	0	505	504	
11	0	0	0	0	504	508	
12	0	0	0	0	504	508	
13	0	0	0	0	506	509	
14	0	0	0	0	508	513	
15	0	0	0	0	507	520	
0	0	0	0	0	505	520	
1	0	0	0	0	504	519	
2	0	0	0	0	504	515	
3	0	0	0	0	505	510	
4	0	0	0	0	505	508	
5	0	0	0	0	505	510	
6	0	0	0	0	504	512	
7	0	0	0	0	507	512	
8	0	0	0	0	507	512	
9	0	0	0	0	506	515	
10	0	0	0	0	503	516	
11	0	0	0	0	504	515	
12	0	0	0	0	501	513	
13	0	0	0	0	504	508	
14	0	0	0	0	508	509	
15	0	0	0	0	510	507	
0	0	0	0	0	513	510	
1	0	0	0	0	508	511	
2	0	0	0	0	507	510	
3	0	0	0	0	504	511	
4	0	0	0	0	503	512	
5	0	0	0	0	496	512	
6	0	0	0	0	497	511	
7	0	0	0	0	509	511	
8	0	0	0	0	503	512	
9	0	0	0	0	504	511	
10	0	0	0	0	507	511	
11	0	0	0	0	508	510	
12	0	0	0	0	504	511	
13	0	0	0	0	502	512	
14	0	0	0	0	505	514	
15	0	0	0	0	509	515	
0	0	0	0	0	509	515	
1	0	0	0	0	508	512	
2	0	0	0	0	510	509	
3	0	0	0	0	507	508	
4	0	0	0	0	508	509	
5	0	0	0	0	505	512	
6	0	0	0	0	507	510	
7	0	0	0	0	506	513	
8	0	0	0	0	501	513	
9	0	0	0	0	501	515	
10	0	0	0	0	505	514	
11	0	0	0	0	504	513	
12	0	0	0	0	506	513	
13	0	0	0	0	507	513	
14	0	0	0	0	504	511	
15	0	0	0	0	504	511	
0	0	0	0	0	505	512	
1	0	0	0	0	505	512	
2	0	0	0	0	503	513	
3	0	0	0	0	506	514	
4	0	0	0	0	507	512	
5	0	0	0	0	506	512	
6	0	0	0	0	503	513	
7	0	0	0	0	505	513	
8	0	0	0	0	504	512	
9	0	0	0	0	505	513	
10	0	0	0	0	504	513	
11	0	0	0	0	504	510	
12	0	0	0	0	507	509	
13	0	0	0	0	508	512	
14	0	0	0	0	508	511	
15	0	0	0	0	508	511	
0	0	0	0	0	504	510	
1	0	0	0	0	505	511	
2	0	0	0	0	505	511	
3	0	0	0	0	507	512	
4	0	0	0	0	504	511	
5	0	0	0	0	503	514	
6	0	0	0	0	505	513	
7	0	0	0	0	507	512	
8	0	0	0	0	504	511	
9	0	0	0	0	506	511	
10	0	0	0	0	504	510	
11	0	0	0	0	502	512	
12	0	0	0	0	502	511	
13	0	0	0	0	503	511	
14	0	0	0	0	504	511	
15	0	0	0	0	507	509	
0	0	0	0	0	512	510	
1	0	0	0	0	511	510	
2	0	0	0	0	506	510	
3	0	0	0	0	509	510	
4	0	0	0	0	505	510	
5	0	0	0	0	506	510	
6	0	0	0	0	507	510	
7	0	0	0	0	510	512	
8	0	0	0	0	507	511	
9	0	0	0	0	505	514	
10	0	0	0	0	506	514	
11	0	0	0	0	505	513	
12	0	0	0	0	504	513	
13	0	0	0	0	503	513	
14	0	0	0	0	505	509	
15	0	0	0	0	506	514	
0	0	0	0	0	505	513	
1	0	0	0	0	504	513	
2	0	0	0	0	499	513	
3	0	0	0	0	495	515	
4	0	0	0	0	502	514	
5	0	0	0	0	510	515	
6	0	0	0	0	512	513	
7	0	0	0	0	508	510	
8	0	0	0	0	495	511	
9	0	0	0	0	504	512	
10	0	0	0	0	517	513	
11	0	0	0	0	515	514	
12	0	0	0	0	499	508	
13	0	0	0	0	500	508	
14	0	0	0	0	504	511	
15	0	0	0	0	508	513	
0	0	0	0	0	507	513	
1	0	0	0	0	505	512	
2	0	0	0	0	504	513	
3	0	0	0	0	504	512	
4	0	0	0	0	504	514	
5	0	0	0	0	506	512	
6	0	0	0	0	507	512	
7	0	0	0	0	506	512	
8	0	0	0	0	504	512	
9	0	0	0	0	505	512	
10	0	0	0	0	504	512	
11	0	0	0	0	503	512	
12	0	0	0	0	503	513	
13	0	0	0	0	504	513	
14	0	0	0	0	507	512	
15	0	0	0	0	511	509	
0	0	0	0	0	509	509	
1	0	0	0	0	507	512	
2	0	0	0	0	505	511	
3	0	0	0	0	509	509	
4	0	0	0	0	507	509	
5	0	0	0	0	506	512	
6	0	0	0	0	504	510	
7	0	0	0	0	502	510	
8	0	0	0	0	503	510	
9	0	0	0	0	504	510	
10	0	0	0	0	505	510	
11	0	0	0	0	506	510	
12	0	0	0	0	505	512	
13	0	0	0	0	502	512	
14	0	0	0	0	501	511	
15	0	0	0	0	506	511	
0	0	0	0	0	506	513	
1	0	0	0	0	502	511	
2	0	0	0	0	506	512	
3	0	0	0	0	508	511	
4	0	0	0	0	507	514	
5	0	0	0	0	510	513	
6	0	0	0	0	507	511	
7	0	0	0	0	504	511	
8	0	0	0	0	504	513	
9	0	0	0	0	507	514	
10	0	0	0	0	505	514	
11	0	0	0	0	506	512	
12	0	0	0	0	504	513	
13	0	0	0	0	507	512	
14	0	0	0	0	509	512	
15	0	0	0	0	504	512	
0	0	0	0	0	501	510	
1	0	0	0	0	503	512	
2	0	0	0	0	505	511	
3	0	0	0	0	504	512	
4	0	0	0	0	504	512	
5	0	0	0	0	504	511	
6	0	0	0	0	504	513	
7	0	0	0	0	505	512	
8	0	0	0	0	504	512	
9	0	0	0	0	505	512	
10	0	0	0	0	507	514	
11	0	0	0	0	509	512	
12	0	0	0	0	509	514	
13	0	0	0	0	508	513	
14	0	0	0	0	510	515	
15	0	0	0	0	502	512	
0	0	0	0	0	503	512	
1	0	0	0	0	506	510	
2	0	0	0	0	506	510	
3	0	0	0	0	505	513	
4	0	0	0	0	506	512	
5	0	0	0	0	505	512	
6	0	0	0	0	505	514	
7	0	0	0	0	504	512	
8	0	0	0	0	505	513	
9	0	0	0	0	504	512	
10	0	0	0	0	511	511	
11	0	0	0	0	510	511	
12	0	0	0	0	508	515	
13	0	0	0	0	509	515	
14	0	0	0	0	505	512	
15	0	0	0	0	504	511	
0	0	0	0	0	497	512	
1	0	0	0	0	498	512	
2	0	0	0	0	500	511	
3	0	0	0	0	497	511	
4	0	0	0	0	499	511	
5	0	0	0	0	504	513	
6	0	0	0	0	503	512	
7	0	0	0	0	510	510	
8	0	0	0	0	510	511	
9	0	0	0	0	507	512	
10	0	0	0	0	506	511	
11	0	0	0	0	508	512	
12	0	0	0	0	507	512	
13	0	0	0	0	512	513	
14	0	0	0	0	513	511	
15	0	0	0	0	511	511	
0	0	0	0	0	511	512	
1	0	0	0	0	507	510	
2	0	0	0	0	500	511	
3	0	0	0	0	505	513	
4	0	0	0	0	511	511	
5	0	0	0	0	504	511	
6	0	0	0	0	494	510	
7	0	0	0	0	503	512	
8	0	0	0	0	508	512	
9	0	0	0	0	508	511	
10	0	0	0	0	507	511	
11	0	0	0	0	504	512	
12	0	0	0	0	505	515	
13	0	0	0	0	504	513	
14	0	0	0	0	504	512	
15	0	0	0	0	505	513	
0	0	0	0	0	504	511	
1	0	0	0	0	505	508	
2	0	0	0	0	504	511	
3	0	0	0	0	503	510	
4	0	0	0	0	506	510	
5	0	0	0	0	508	512	
6	0	0	0	0	507	513	
7	0	0	0	0	506	511	
8	0	0	0	0	503	513	
9	0	0	0	0	505	512	
10	0	0	0	0	504	510	
11	0	0	0	0	504	512	
12	0	0	0	0	504	510	
13	0	0	0	0	504	511	
14	0	0	0	0	503	512	
15	0	0	0	0	504	512	
0	0	0	0	0	508	511	
1	0	0	0	0	510	512	
2	0	0	0	0	507	513	
3	0	0	0	0	507	512	
4	0	0	0	0	503	509	
5	0	0	0	0	503	511	
6	0	0	0	0	504	511	
7	0	0	0	0	506	513	
8	0	0	0	0	504	511	
9	0	0	0	0	504	512	
10	0	0	0	0	504	513	
11	0	0	0	0	507	512	
12	0	0	0	0	509	511	
13	0	0	0	0	509	513	
14	0	0	0	0	509	515	
15	0	0	0	0	504	511	
0	0	0	0	0	505	510	
1	0	0	0	0	502	511	
2	0	0	0	0	500	515	
3	0	0	0	0	499	513	
4	0	0	0	0	502	511	
5	0	0	0	0	503	512	
6	0	0	0	0	502	514	
7	0	0	0	0	503	513	
8	0	0	0	0	509	513	
9	0	0	0	0	519	511	
10	0	0	0	0	516	512	
11	0	0	0	0	510	511	
12	0	0	0	0	506	510	
13	0	0	0	0	502	511	
14	0	0	0	0	496	514	
15	0	0	0	0	503	512	
0	0	0	0	0	505	510	
1	0	0	0	0	511	508	
2	0	0	0	0	510	512	
3	0	0	0	0	506	511	
4	0	0	0	0	507	510	
5	0	0	0	0	503	512	
6	0	0	0	0	504	512	
7	0	0	0	0	504	512	
8	0	0	0	0	504	513	
9	0	0	0	0	504	513	
10	0	0	0	0	504	512	
11	0	0	0	0	503	511	
12	0	0	0	0	504	513	
13	0	0	0	0	507	511	
14	0	0	0	0	509	511	
15	0	0	0	0	507	511	
0	0	0	0	0	504	513	
1	0	0	0	0	505	512	
2	0	0	0	0	507	511	
3	0	0	0	0	505	511	
4	0	0	0	0	508	512	
5	0	0	0	0	508	512	
6	0	0	0	0	506	511	
7	0	0	0	0	507	511	
8	0	0	0	0	504	511	
9	0	0	0	0	504	511	
10	0	0	0	0	504	514	
11	0	0	0	0	504	512	
12	0	0	0	0	502	512	
13	0	0	0	0	502	511	
14	0	0	0	0	503	513	
15	0	0	0	0	503	512	
0	0	0	0	0	504	511	
1	0	0	0	0	507	511	
2	0	0	0	0	509	515	
3	0	0	0	0	511	511	
4	0	0	0	0	505	510	
5	0	0	0	0	503	513	
6	0	0	0	0	503	514	
7	0	0	0	0	503	512	
8	0	0	0	0	507	513	
9	0	0	0	0	506	512	
10	0	0	0	0	506	511	
11	0	0	0	0	504	513	
12	0	0	0	0	505	513	
13	0	0	0	0	515	512	
14	0	0	0	0	518	511	
15	0	0	0	0	502	510	
0	0	0	0	0	498	510	
1	0	0	0	0	504	511	
2	0	0	0	0	504	511	
3	0	0	0	0	502	513	
4	0	0	0	0	504	512	
5	0	0	0	0	505	512	
6	0	0	0	0	504	511	
7	0	0	0	0	505	515	
8	0	0	0	0	508	513	
9	0	0	0	0	506	512	
10	0	0	0	0	506	512	
11	0	0	0	0	505	511	
12	0	0	0	0	504	510	
13	0	0	0	0	505	511	
14	0	0	0	0	508	511	
15	0	0	0	0	508	512	
0	0	0	0	0	506	513	
1	0	0	0	0	504	513	
2	0	0	0	0	504	511	
3	0	0	0	0	504	510	
4	0	0	0	0	501	511	
5	0	0	0	0	499	512	
6	0	0	0	0	501	512	
7	0	0	0	0	509	512	
8	0	0	0	0	510	512	
9	0	0	0	0	511	512	
10	0	0	0	0	512	513	
11	0	0	0	0	515	513	
12	0	0	0	0	515	512	
13	0	0	0	0	511	511	
14	0	0	0	0	504	509	
15	0	0	0	0	505	511	
0	0	0	0	0	502	511	
1	0	0	0	0	504	510	
2	0	0	0	0	502	511	
3	0	0	0	0	501	513	
4	0	0	0	0	504	511	
5	0	0	0	0	500	512	
6	0	0	0	0	499	513	
7	0	0	0	0	503	516	
8	0	0	0	0	510	514	
9	0	0	0	0	514	512	
10	0	0	0	0	505	511	
11	0	0	0	0	497	509	
12	0	0	0	0	503	510	
13	0	0	0	0	504	511	
14	0	0	0	0	505	511	
15	0	0	0	0	505	510	
0	0	0	0	0	506	513	
1	0	0	0	0	506	512	
2	0	0	0	0	503	512	
3	0	0	0	0	503	513	
4	0	0	0	0	506	513	
5	0	0	0	0	507	513	
6	0	0	0	0	505	512	
7	0	0	0	0	504	512	
8	0	0	0	0	507	514	
9	0	0	0	0	504	512	
10	0	0	0	0	507	512	
11	0	0	0	0	505	513	
12	0	0	0	0	505	512	
13	0	0	0	0	512	513	
14	0	0	0	0	514	511	
15	0	0	0	0	508	513	
0	0	0	0	0	502	511	
1	0	0	0	0	498	510	
2	0	0	0	0	496	513	
3	0	0	0	0	502	510	
4	0	0	0	0	504	512	
5	0	0	0	0	506	511	
6	0	0	0	0	505	513	
7	0	0	0	0	503	511	
8	0	0	0	0	512	508	
9	0	0	0	0	520	511	
10	0	0	0	0	515	510	
11	0	0	0	0	507	509	
12	0	0	0	0	506	510	
13	0	0	0	0	501	510	
14	0	0	0	0	495	512	
15	0	0	0	0	501	511	
0	0	0	0	0	504	514	
1	0	0	0	0	506	512	
2	0	0	0	0	502	515	
3	0	0	0	0	504	514	
4	0	0	0	0	503	514	
5	0	0	0	0	503	512	
6	0	0	0	0	503	513	
7	0	0	0	0	507	509	
8	0	0	0	0	507	510	
9	0	0	0	0	506	513	
10	0	0	0	0	504	511	
11	0	0	0	0	507	511	
12	0	0	0	0	509	512	
13	0	0	0	0	504	511	
14	0	0	0	0	504	511	
15	0	0	0	0	505	512	
0	0	0	0	0	507	512	
1	0	0	0	0	507	512	
2	0	0	0	0	510	512	
3	0	0	0	0	507	514	
4	0	0	0	0	505	512	
5	0	0	0	0	505	513	
6	0	0	0	0	504	512	
7	0	0	0	0	504	511	
8	0	0	0	0	501	511	
9	0	0	0	0	505	513	
10	0	0	0	0	507	513	
11	0	0	0	0	504	513	
12	0	0	0	0	503	513	
13	0	0	0	0	507	512	
14	0	0	0	0	512	511	
15	0	0	0	0	516	510	
0	0	0	0	0	510	508	
1	0	0	0	0	507	510	
2	0	0	0	0	503	511	
3	0	0	0	0	505	511	
4	0	0	0	0	504	510	
5	0	0	0	0	503	511	
6	0	0	0	0	506	512	
7	0	0	0	0	504	511	
8	0	0	0	0	504	512	
9	0	0	0	0	502	512	
10	0	0	0	0	502	511	
11	0	0	0	0	505	510	
12	0	0	0	0	504	511	
13	0	0	0	0	501	512	
14	0	0	0	0	503	514	
15	0	0	0	0	501	513	
0	0	0	0	0	502	514	
1	0	0	0	0	507	514	
2	0	0	0	0	510	514	
3	0	0	0	0	511	513	
4	0	0	0	0	505	510	
5	0	0	0	0	504	512	
6	0	0	0	0	507	513	
7	0	0	0	0	508	510	
8	0	0	0	0	505	512	
9	0	0	0	0	504	511	
10	0	0	0	0	504	512	
11	0	0	0	0	504	512	
12	0	0	0	0	507	511	
13	0	0	0	0	508	512	
14	0	0	0	0	506	510	
15	0	0	0	0	504	511	
0	0	0	0	0	504	512	
1	0	0	0	0	505	513	
2	0	0	0	0	505	512	
3	0	0	0	0	504	512	
4	0	0	0	0	507	512	
5	0	0	0	0	506	510	
6	0	0	0	0	504	511	
7	0	0	0	0	505	510	
8	0	0	0	0	506	510	
9	0	0	0	0	508	510	
10	0	0	0	0	507	514	
11	0	0	0	0	506	513	
12	0	0	0	0	507	510	
13	0	0	0	0	507	512	
14	0	0	0	0	508	512	
15	0	0	0	0	510	511	
0	0	0	0	0	503	512	
1	0	0	0	0	503	512	
2	0	0	0	0	500	511	
3	0	0	0	0	499	511	
4	0	0	0	0	504	511	
5	0	0	0	0	506	511	
6	0	0	0	0	508	511	
7	0	0	0	0	508	512	
8	0	0	0	0	508	509	
9	0	0	0	0	511	511	
10	0	0	0	0	512	513	
11	0	0	0	0	510	513	
12	0	0	0	0	504	511	
13	0	0	0	0	503	513	
14	0	0	0	0	504	511	
15	0	0	0	0	502	511	
0	0	0	0	0	499	513	
1	0	0	0	0	500	513	
2	0	0	0	0	502	513	
3	0	0	0	0	507	511	
4	0	0	0	0	502	511	
5	0	0	0	0	499	513	
6	0	0	0	0	505	512	
7	0	0	0	0	510	512	
8	0	0	0	0	508	512	
9	0	0	0	0	500	512	
10	0	0	0	0	503	513	
11	0	0	0	0	508	512	
12	0	0	0	0	509	511	
13	0	0	0	0	507	513	
14	0	0	0	0	505	512	
15	0	0	0	0	508	511	
0	0	0	0	0	508	512	
1	0	0	0	0	509	512	
2	0	0	0	0	511	514	
3	0	0	0	0	508	513	
4	0	0	0	0	506	509	
5	0	0	0	0	505	511	
6	0	0	0	0	505	513	
7	0	0	0	0	503	512	
8	0	0	0	0	505	511	
9	0	0	0	0	506	510	
10	0	0	0	0	507	512	
11	0	0	0	0	509	511	
12	0	0	0	0	511	511	
13	0	0	0	0	509	510	
14	0	0	0	0	503	513	
15	0	0	0	0	502	511	
0	0	0	0	0	499	512	
1	0	0	0	0	504	512	
2	0	0	0	0	503	512	
3	0	0	0	0	496	512	
4	0	0	0	0	499	510	
5	0	0	0	0	509	512	
6	0	0	0	0	512	511	
7	0	0	0	0	507	512	
8	0	0	0	0	507	513	
9	0	0	0	0	505	511	
10	0	0	0	0	508	512	
11	0	0	0	0	507	512	
12	0	0	0	0	505	515	
13	0	0	0	0	502	513	
14	0	0	0	0	503	512	
15	0	0	0	0	498	511	
0	0	0	0	0	504	512	
1	0	0	0	0	511	511	
2	0	0	0	0	515	509	
3	0	0	0	0	510	511	
4	0	0	0	0	504	510	
5	0	0	0	0	500	510	
6	0	0	0	0	502	512	
7	0	0	0	0	506	511	
8	0	0	0	0	507	510	
9	0	0	0	0	507	511	
10	0	0	0	0	506	513	
11	0	0	0	0	507	512	
12	0	0	0	0	507	513	
13	0	0	0	0	506	511	
14	0	0	0	0	505	512	
15	0	0	0	0	503	512	
0	0	0	0	0	503	511	
1	0	0	0	0	507	513	
2	0	0	0	0	504	512	
3	0	0	0	0	497	510	
4	0	0	0	0	501	513	
5	0	0	0	0	506	512	
6	0	0	0	0	510	512	
7	0	0	0	0	508	512	
8	0	0	0	0	508	514	
9	0	0	0	0	505	512	
10	0	0	0	0	506	511	
11	0	0	0	0	508	513	
12	0	0	0	0	507	511	
13	0	0	0	0	508	509	
14	0	0	0	0	507	511	
15	0	0	0	0	507	512	
0	0	0	0	0	503	511	
1	0	0	0	0	505	513	
2	0	0	0	0	505	510	
3	0	0	0	0	505	513	
4	0	0	0	0	508	510	
5	0	0	0	0	504	512	
6	0	0	0	0	503	512	
7	0	0	0	0	503	513	
8	0	0	0	0	504	512	
9	0	0	0	0	504	510	
10	0	0	0	0	504	512	
11	0	0	0	0	503	514	
12	0	0	0	0	504	511	
13	0	0	0	0	501	513	
14	0	0	0	0	504	512	
15	0	0	0	0	505	512	
0	0	0	0	0	509	511	
1	0	0	0	0	510	512	
2	0	0	0	0	508	513	
3	0	0	0	0	510	512	
4	0	0	0	0	507	512	
5	0	0	0	0	503	513	
6	0	0	0	0	502	512	
7	0	0	0	0	501	509	
8	0	0	0	0	508	511	
9	0	0	0	0	500	511	
10	0	0	0	0	496	510	
11	0	0	0	0	498	511	
12	0	0	0	0	509	514	
13	0	0	0	0	514	512	
14	0	0	0	0	511	512	
15	0	0	0	0	508	511	
0	0	0	0	0	505	512	
1	0	0	0	0	505	511	
2	0	0	0	0	505	512	
3	0	0	0	0	505	513	
4	0	0	0	0	508	513	
5	0	0	0	0	507	513	
6	0	0	0	0	508	512	
7	0	0	0	0	508	512	
8	0	0	0	0	505	512	
9	0	0	0	0	504	512	
10	0	0	0	0	502	512	
11	0	0	0	0	503	514	
12	0	0	0	0	499	512	
13	0	0	0	0	504	513	
14	0	0	0	0	510	511	
15	0	0	0	0	508	508	
0	0	0	0	0	499	510	
1	0	0	0	0	502	512	
2	0	0	0	0	506	512	
3	0	0	0	0	505	512	
4	0	0	0	0	507	512	
5	0	0	0	0	507	512	
6	0	0	0	0	509	512	
7	0	0	0	0	504	511	
8	0	0	0	0	504	512	
9	0	0	0	0	505	513	
10	0	0	0	0	505	514	
11	0	0	0	0	505	512	
12	0	0	0	0	508	511	
13	0	0	0	0	504	511	
14	0	0	0	0	502	512	
15	0	0	0	0	511	512	
0	0	0	0	0	518	513	
1	0	0	0	0	514	513	
2	0	0	0	0	504	513	
3	0	0	0	0	500	509	
4	0	0	0	0	488	515	
5	0	0	0	0	495	510	
6	0	0	0	0	503	508	
7	0	0	0	0	512	513	
8	0	0	0	0	510	510	
9	0	0	0	0	508	510	
10	0	0	0	0	508	510	
11	0	0	0	0	507	513	
12	0	0	0	0	504	512	
13	0	0	0	0	504	513	
14	0	0	0	0	508	512	
15	0	0	0	0	510	510	
0	0	0	0	0	508	510	
1	0	0	0	0	503	512	
2	0	0	0	0	504	512	
3	0	0	0	0	504	515	
4	0	0	0	0	505	513	
5	0	0	0	0	504	512	
6	0	0	0	0	504	512	
7	0	0	0	0	504	512	
8	0	0	0	0	507	511	
9	0	0	0	0	504	511	
10	0	0	0	0	505	512	
11	0	0	0	0	505	510	
12	0	0	0	0	507	510	
13	0	0	0	0	504	512	
14	0	0	0	0	502	513	
15	0	0	0	0	504	513	
0	0	0	0	0	502	511	
1	0	0	0	0	501	512	
2	0	0	0	0	496	511	
3	0	0	0	0	508	513	
4	0	0	0	0	513	514	
5	0	0	0	0	512	511	
6	0	0	0	0	511	510	
7	0	0	0	0	512	512	
8	0	0	0	0	506	512	
9	0	0	0	0	504	510	
10	0	0	0	0	505	511	
11	0	0	0	0	505	510	
12	0	0	0	0	504	511	
13	0	0	0	0	503	511	
14	0	0	0	0	504	511	
15	0	0	0	0	505	513	
0	0	0	0	0	508	512	
1	0	0	0	0	505	513	
2	0	0	0	0	503	512	
3	0	0	0	0	504	511	
4	0	0	0	0	507	511	
5	0	0	0	0	508	512	
6	0	0	0	0	504	511	
7	0	0	0	0	504	513	
8	0	0	0	0	505	516	
9	0	0	0	0	508	513	
10	0	0	0	0	509	511	
11	0	0	0	0	509	513	
12	0	0	0	0	504	511	
13	0	0	0	0	504	510	
14	0	0	0	0	496	510	
15	0	0	0	0	499	510	
0	0	0	0	0	496	511	
1	0	0	0	0	501	512	
2	0	0	0	0	507	511	
3	0	0	0	0	512	511	
4	0	0	0	0	508	513	
5	0	0	0	0	507	510	
6	0	0	0	0	507	513	
7	0	0	0	0	508	513	
8	0	0	0	0	506	511	
9	0	0	0	0	506	513	
10	0	0	0	0	508	511	
11	0	0	0	0	504	510	
12	0	0	0	0	505	510	
13	0	0	0	0	504	514	
14	0	0	0	0	506	513	
15	0	0	0	0	505	513	
0	0	0	0	0	502	513	
1	0	0	0	0	504	512	
2	0	0	0	0	501	511	
3	0	0	0	0	504	512	
4	0	0	0	0	510	513	
5	0	0	0	0	508	513	
6	0	0	0	0	504	513	
7	0	0	0	0	504	514	
8	0	0	0	0	511	510	
9	0	0	0	0	510	511	
10	0	0	0	0	508	508	
11	0	0	0	0	504	510	
12	0	0	0	0	506	512	
13	0	0	0	0	505	511	
14	0	0	0	0	505	512	
15	0	0	0	0	504	512	
0	0	0	0	0	506	513	
1	0	0	0	0	505	512	
2	0	0	0	0	506	512	
3	0	0	0	0	507	510	
4	0	0	0	0	504	513	
5	0	0	0	0	504	513	
6	0	0	0	0	502	512	
7	0	0	0	0	504	515	
8	0	0	0	0	504	510	
9	0	0	0	0	507	512	
10	0	0	0	0	507	510	
11	0	0	0	0	504	510	
12	0	0	0	0	502	512	
13	0	0	0	0	503	513	
14	0	0	0	0	507	512	
15	0	0	0	0	508	512	
0	0	0	0	0	507	511	
1	0	0	0	0	504	511	
2	0	0	0	0	507	512	
3	0	0	0	0	510	512	
4	0	0	0	0	507	511	
5	0	0	0	0	501	511	
6	0	0	0	0	504	512	
7	0	0	0	0	504	509	
8	0	0	0	0	499	510	
9	0	0	0	0	506	512	
10	0	0	0	0	506	511	
11	0	0	0	0	503	511	
12	0	0	0	0	507	512	
13	0	0	0	0	511	513	
14	0	0	0	0	510	512	
15	0	0	0	0	504	511	
0	0	0	0	0	504	512	
1	0	0	0	0	505	511	
2	0	0	0	0	508	510	
3	0	0	0	0	506	508	
4	0	0	0	0	503	510	
5	0	0	0	0	502	511	
6	0	0	0	0	508	513	
7	0	0	0	0	512	515	
8	0	0	0	0	511	513	
9	0	0	0	0	497	510	
10	0	0	0	0	495	511	
11	0	0	0	0	499	512	
12	0	0	0	0	503	512	
13	0	0	0	0	501	514	
14	0	0	0	0	508	514	
15	0	0	0	0	508	512	
0	0	0	0	0	505	511	
1	0	0	0	0	508	511	
2	0	0	0	0	513	514	
3	0	0	0	0	508	510	
4	0	0	0	0	508	512	
5	0	0	0	0	503	510	
6	0	0	0	0	504	512	
7	0	0	0	0	504	513	
8	0	0	0	0	506	513	
9	0	0	0	0	510	513	
10	0	0	0	0	508	512	
11	0	0	0	0	508	512	
12	0	0	0	0	506	513	
13	0	0	0	0	502	511	
14	0	0	0	0	503	513	
15	0	0	0	0	501	514	
0	0	0	0	0	499	516	
1	0	0	0	0	504	514	
2	0	0	0	0	498	512	
3	0	0	0	0	495	511	
4	0	0	0	0	501	511	
5	0	0	0	0	510	511	
6	0	0	0	0	511	508	
7	0	0	0	0	512	510	
8	0	0	0	0	503	511	
9	0	0	0	0	508	511	
10	0	0	0	0	515	512	
11	0	0	0	0	508	510	
12	0	0	0	0	505	509	
13	0	0	0	0	506	510	
14	0	0	0	0	505	514	
15	0	0	0	0	508	513	
0	0	0	0	0	511	514	
1	0	0	0	0	507	513	
2	0	0	0	0	496	513	
3	0	0	0	0	493	514	
4	0	0	0	0	502	516	
5	0	0	0	0	503	513	
6	0	0	0	0	505	510	
7	0	0	0	0	514	511	
8	0	0	0	0	521	508	
9	0	0	0	0	505	508	
10	0	0	0	0	506	510	
11	0	0	0	0	513	510	
12	0	0	0	0	507	509	
13	0	0	0	0	505	508	
14	0	0	0	0	502	508	
15	0	0	0	0	504	511	
0	0	0	0	0	501	514	
1	0	0	0	0	500	514	
2	0	0	0	0	502	515	
3	0	0	0	0	503	512	
4	0	0	0	0	505	514	
5	0	0	0	0	505	515	
6	0	0	0	0	504	513	
7	0	0	0	0	503	517	
8	0	0	0	0	507	513	
9	0	0	0	0	505	505	
10	0	0	0	0	503	503	
11	0	0	0	0	504	506	
12	0	0	0	0	504	510	
13	0	0	0	0	507	513	
14	0	0	0	0	507	512	
15	0	0	0	0	505	512	
0	0	0	0	0	507	514	
1	0	0	0	0	507	512	
2	0	0	0	0	511	517	
3	0	0	0	0	512	515	
4	0	0	0	0	509	515	
5	0	0	0	0	504	515	
6	0	0	0	0	502	512	
7	0	0	0	0	498	515	
8	0	0	0	0	500	515	
9	0	0	0	0	504	511	
10	0	0	0	0	499	511	
11	0	0	0	0	504	510	
12	0	0	0	0	511	507	
13	0	0	0	0	508	509	
14	0	0	0	0	497	511	
15	0	0	0	0	499	511	
0	0	0	0	0	508	513	
1	0	0	0	0	516	512	
2	0	0	0	0	519	515	
3	0	0	0	0	513	514	
4	0	0	0	0	509	512	
5	0	0	0	0	510	513	
6	0	0	0	0	499	511	
7	0	0	0	0	494	513	
8	0	0	0	0	496	511	
9	0	0	0	0	503	508	
10	0	0	0	0	488	504	
11	0	0	0	0	483	503	
12	0	0	0	0	497	507	
13	0	0	0	0	516	511	
14	0	0	0	0	528	515	
15	0	0	0	0	519	516	
0	0	0	0	0	520	519	
1	0	0	0	0	520	523	
2	0	0	0	0	508	521	
3	0	0	0	0	507	513	
4	0	0	0	0	510	507	
5	0	0	0	0	505	500	
6	0	0	0	0	497	504	
7	0	0	0	0	497	505	
8	0	0	0	0	505	511	
9	0	0	0	0	504	512	
10	0	0	0	0	502	511	
11	0	0	0	0	500	509	
12	0	0	0	0	504	516	
13	0	0	0	0	504	523	
14	0	0	0	0	501	523	
15	0	0	0	0	500	516	
0	0	0	0	0	500	512	
1	0	0	0	0	502	509	
2	0	0	0	0	504	509	
3	0	0	0	0	504	511	
4	0	0	0	0	505	514	
5	0	0	0	0	506	513	
6	0	0	0	0	504	510	
7	0	0	0	0	506	511	
8	0	0	0	0	509	510	
9	0	0	0	0	511	508	
10	0	0	0	0	511	508	
11	0	0	0	0	504	507	
12	0	0	0	0	504	504	
13	0	0	0	0	508	507	
14	0	0	0	0	505	511	
15	0	0	0	0	510	511	
0	0	0	0	0	509	511	
1	0	0	0	0	504	511	
2	0	0	0	0	503	513	
3	0	0	0	0	507	520	
4	0	0	0	0	509	530	
5	0	0	0	0	512	521	
6	0	0	0	0	511	507	
7	0	0	0	0	508	510	
8	0	0	0	0	500	511	
9	0	0	0	0	499	511	
10	0	0	0	0	500	510	
11	0	0	0	0	496	507	
12	0	0	0	0	487	508	
13	0	0	0	0	486	509	
14	0	0	0	0	505	508	
15	0	0	0	0	517	514	
0	0	0	0	0	519	513	
1	0	0	0	0	523	511	
2	0	0	0	0	520	511	
3	0	0	0	0	513	513	
4	0	0	0	0	509	511	
5	0	0	0	0	503	506	
6	0	0	0	0	498	513	
7	0	0	0	0	495	515	
8	0	0	0	0	501	515	
9	0	0	0	0	505	525	
10	0	0	0	0	508	522	
11	0	0	0	0	510	505	
12	0	0	0	0	503	504	
13	0	0	0	0	509	518	
14	0	0	0	0	514	525	
15	0	0	0	0	512	515	
0	0	0	0	0	513	504	
1	0	0	0	0	508	504	
2	0	0	0	0	504	502	
3	0	0	0	0	506	504	
4	0	0	0	0	500	507	
5	0	0	0	0	499	507	
6	0	0	0	0	497	508	
7	0	0	0	0	496	512	
8	0	0	0	0	492	512	
9	0	0	0	0	494	507	
10	0	0	0	0	494	512	
11	0	0	0	0	499	512	
12	0	0	0	0	503	515	
13	0	0	0	0	505	511	
14	0	0	0	0	502	507	
15	0	0	0	0	511	507	
0	0	0	0	0	516	506	
1	0	0	0	0	519	507	
2	0	0	0	0	512	509	
3	0	0	0	0	505	516	
4	0	0	0	0	505	519	
5	0	0	0	0	508	512	
6	0	0	0	0	504	509	
7	0	0	0	0	503	508	
8	0	0	0	0	506	508	
9	0	0	0	0	509	510	
10	0	0	0	0	506	507	
11	0	0	0	0	500	508	
12	0	0	0	0	499	509	
13	0	0	0	0	499	513	
14	0	0	0	0	502	521	
15	0	0	0	0	503	534	
0	0	0	0	0	512	541	
1	0	0	0	0	512	536	
2	0	0	0	0	509	522	
3	0	0	0	0	529	522	
4	0	0	0	0	549	519	
5	0	0	0	0	532	511	
6	0	0	0	0	494	499	
7	0	0	0	0	477	502	
8	0	0	0	0	483	505	
9	0	0	0	0	475	508	
10	0	0	0	0	496	505	
11	0	0	0	0	508	505	
12	0	0	0	0	511	512	
13	0	0	0	0	524	512	
14	0	0	0	0	521	520	
15	0	0	0	0	504	523	
0	0	0	0	0	478	512	
1	0	0	0	0	487	500	
2	0	0	0	0	515	486	
3	0	0	0	0	505	487	
4	0	0	0	0	501	490	
5	0	0	0	0	502	494	
6	0	0	0	0	510	502	
7	0	0	0	0	504	504	
8	0	0	0	0	500	510	
9	0	0	0	0	503	515	
10	0	0	0	0	500	516	
11	0	0	0	0	496	519	
12	0	0	0	0	495	518	
13	0	0	0	0	491	520	
14	0	0	0	0	500	520	
15	0	0	0	0	509	519	
0	0	0	0	0	509	518	
1	0	0	0	0	510	520	
2	0	0	0	0	526	521	
3	0	0	0	0	526	516	
4	0	0	0	0	520	513	
5	0	0	0	0	532	509	
6	0	0	0	0	524	508	
7	0	0	0	0	518	505	
8	0	0	0	0	511	504	
9	0	0	0	0	496	504	
10	0	0	0	0	491	507	
11	0	0	0	0	498	513	
12	0	0	0	0	504	524	
13	0	0	0	0	502	529	
14	0	0	0	0	497	517	
15	0	0	0	0	496	509	
0	0	0	0	0	493	505	
1	0	0	0	0	490	502	
2	0	0	0	0	496	501	
3	0	0	0	0	496	509	
4	0	0	0	0	496	512	
5	0	0	0	0	497	519	
6	0	0	0	0	499	515	
7	0	0	0	0	491	514	
8	0	0	0	0	511	516	
9	0	0	0	0	529	514	
10	0	0	0	0	530	502	
11	0	0	0	0	531	495	
12	0	0	0	0	524	495	
13	0	0	0	0	519	513	
14	0	0	0	0	512	527	
15	0	0	0	0	509	539	
0	0	0	0	0	504	533	
1	0	0	0	0	505	531	
2	0	0	0	0	499	524	
3	0	0	0	0	498	531	
4	0	0	0	0	501	525	
5	0	0	0	0	496	516	
6	0	0	0	0	507	508	
7	0	0	0	0	507	507	
8	0	0	0	0	508	503	
9	0	0	0	0	509	501	
10	0	0	0	0	494	498	
11	0	0	0	0	496	497	
12	0	0	0	0	503	505	
13	0	0	0	0	498	511	
14	0	0	0	0	492	516	
15	0	0	0	0	498	510	
0	0	0	0	0	505	509	
1	0	0	0	0	504	513	
2	0	0	0	0	513	508	
3	0	0	0	0	518	504	
4	0	0	0	0	511	502	
5	0	0	0	0	492	499	
6	0	0	0	0	491	505	
7	0	0	0	0	499	507	
8	0	0	0	0	512	508	
9	0	0	0	0	514	508	
10	0	0	0	0	508	515	
11	0	0	0	0	509	527	
12	0	0	0	0	510	528	
13	0	0	0	0	506	519	
14	0	0	0	0	500	515	
15	0	0	0	0	489	511	
0	0	0	0	0	497	508	
1	0	0	0	0	508	506	
2	0	0	0	0	508	505	
3	0	0	0	0	508	492	
4	0	0	0	0	510	499	
5	0	0	0	0	516	519	
6	0	0	0	0	517	537	
7	0	0	0	0	508	549	
8	0	0	0	0	497	540	
9	0	0	0	0	492	527	
10	0	0	0	0	488	509	
11	0	0	0	0	465	492	
12	0	0	0	0	473	483	
13	0	0	0	0	472	490	
14	0	0	0	0	495	506	
15	0	0	0	0	546	511	
0	0	0	0	0	561	510	
1	0	0	0	0	551	514	
2	0	0	0	0	535	513	
3	0	0	0	0	524	510	
4	0	0	0	0	518	510	
5	0	0	0	0	510	508	
6	0	0	0	0	483	505	
7	0	0	0	0	479	501	
8	0	0	0	0	479	511	
9	0	0	0	0	474	516	
10	0	0	0	0	462	540	
11	0	0	0	0	465	542	
12	0	0	0	0	484	531	
13	0	0	0	0	520	531	
14	0	0	0	0	546	519	
15	0	0	0	0	566	497	
0	0	0	0	0	538	468	
1	0	0	0	0	526	467	
2	0	0	0	0	583	497	
3	0	0	0	0	569	498	
4	0	0	0	0	504	477	
5	0	0	0	0	475	495	
6	0	0	0	0	508	562	
7	0	0	0	0	514	601	
8	0	0	0	0	493	594	
9	0	0	0	0	481	563	
10	0	0	0	0	479	519	
11	0	0	0	0	479	477	
12	0	0	0	0	488	475	
13	0	0	0	0	491	483	
14	0	0	0	0	491	481	
15	0	0	0	0	493	476	
0	0	0	0	0	499	470	
1	0	0	0	0	501	489	
2	0	0	0	0	508	511	
3	0	0	0	0	512	530	
4	0	0	0	0	505	533	
5	0	0	0	0	497	526	
6	0	0	0	0	508	509	
7	0	0	0	0	507	503	
8	0	0	0	0	500	515	
9	0	0	0	0	494	514	
10	0	0	0	0	490	508	
11	0	0	0	0	504	510	
12	0	0	0	0	513	514	
13	0	0	0	0	513	511	
14	0	0	0	0	511	524	
15	0	0	0	0	506	527	
0	0	0	0	0	495	524	
1	0	0	0	0	499	515	
2	0	0	0	0	504	507	
3	0	0	0	0	496	511	
4	0	0	0	0	495	508	
5	0	0	0	0	507	504	
6	0	0	0	0	513	500	
7	0	0	0	0	531	501	
8	0	0	0	0	523	502	
9	0	0	0	0	492	498	
10	0	0	0	0	488	500	
11	0	0	0	0	502	515	
12	0	0	0	0	501	523	
13	0	0	0	0	508	521	
14	0	0	0	0	509	529	
15	0	0	0	0	523	547	
0	0	0	0	0	518	555	
1	0	0	0	0	500	542	
2	0	0	0	0	493	535	
3	0	0	0	0	515	507	
4	0	0	0	0	515	486	
5	0	0	0	0	471	473	
6	0	0	0	0	480	479	
7	0	0	0	0	532	481	
8	0	0	0	0	565	478	
9	0	0	0	0	527	487	
10	0	0	0	0	506	502	
11	0	0	0	0	501	523	
12	0	0	0	0	492	556	
13	0	0	0	0	487	567	
14	0	0	0	0	484	551	
15	0	0	0	0	480	512	
0	0	0	0	0	478	495	
1	0	0	0	0	471	496	
2	0	0	0	0	473	495	
3	0	0	0	0	482	494	
4	0	0	0	0	506	511	
5	0	0	0	0	522	523	
6	0	0	0	0	541	516	
7	0	0	0	0	555	497	
8	0	0	0	0	544	496	
9	0	0	0	0	557	495	
10	0	0	0	0	572	505	
11	0	0	0	0	549	521	
12	0	0	0	0	526	512	
13	0	0	0	0	510	503	
14	0	0	0	0	478	506	
15	0	0	0	0	483	507	
0	0	0	0	0	479	520	
1	0	0	0	0	479	525	
2	0	0	0	0	478	519	
3	0	0	0	0	486	527	
4	0	0	0	0	489	522	
5	0	0	0	0	484	519	
6	0	0	0	0	489	522	
7	0	0	0	0	503	532	
8	0	0	0	0	519	523	
9	0	0	0	0	520	508	
10	0	0	0	0	506	497	
11	0	0	0	0	499	495	
12	0	0	0	0	500	507	
13	0	0	0	0	535	515	
14	0	0	0	0	551	507	
15	0	0	0	0	516	508	
0	0	0	0	0	478	515	
1	0	0	0	0	471	519	
2	0	0	0	0	463	515	
3	0	0	0	0	478	497	
4	0	0	0	0	503	483	
5	0	0	0	0	504	491	
6	0	0	0	0	513	507	
7	0	0	0	0	553	523	
8	0	0	0	0	547	503	
9	0	0	0	0	488	500	
10	0	0	0	0	446	530	
11	0	0	0	0	441	534	
12	0	0	0	0	482	516	
13	0	0	0	0	505	514	
14	0	0	0	0	512	531	
15	0	0	0	0	510	541	
0	0	0	0	0	546	529	
1	0	0	0	0	547	499	
2	0	0	0	0	553	477	
3	0	0	0	0	548	492	
4	0	0	0	0	519	496	
5	0	0	0	0	496	492	
6	0	0	0	0	494	506	
7	0	0	0	0	496	515	
8	0	0	0	0	492	514	
9	0	0	0	0	481	523	
10	0	0	0	0	499	530	
11	0	0	0	0	467	545	
12	0	0	0	0	469	551	
13	0	0	0	0	489	524	
14	0	0	0	0	496	512	
15	0	0	0	0	513	505	
0	0	0	0	0	515	499	
1	0	0	0	0	496	494	
2	0	0	0	0	493	490	
3	0	0	0	0	521	490	
4	0	0	0	0	553	504	
5	0	0	0	0	548	532	
6	0	0	0	0	555	536	
7	0	0	0	0	554	521	
8	0	0	0	0	512	497	
9	0	0	0	0	477	497	
10	0	0	0	0	476	515	
11	0	0	0	0	463	526	
12	0	0	0	0	456	510	
13	0	0	0	0	482	496	
14	0	0	0	0	481	494	
15	0	0	0	0	499	506	
0	0	0	0	0	527	507	
1	0	0	0	0	542	511	
2	0	0	0	0	551	515	
3	0	0	0	0	537	531	
4	0	0	0	0	508	519	
5	0	0	0	0	492	509	
6	0	0	0	0	495	503	
7	0	0	0	0	492	519	
8	0	0	0	0	515	527	
9	0	0	0	0	511	516	
10	0	0	0	0	494	512	
11	0	0	0	0	476	508	
12	0	0	0	0	463	505	
13	0	0	0	0	478	509	
14	0	0	0	0	491	511	
15	0	0	0	0	496	513	
0	0	0	0	0	502	508	
1	0	0	0	0	497	500	
2	0	0	0	0	494	494	
3	0	0	0	0	495	498	
4	0	0	0	0	507	499	
5	0	0	0	0	537	504	
6	0	0	0	0	563	507	
7	0	0	0	0	585	524	
8	0	0	0	0	598	537	
9	0	0	0	0	556	558	
10	0	0	0	0	525	555	
11	0	0	0	0	511	521	
12	0	0	0	0	473	477	
13	0	0	0	0	472	466	
14	0	0	0	0	487	477	
15	0	0	0	0	477	502	
0	0	0	0	0	491	534	
1	0	0	0	0	475	536	
2	0	0	0	0	477	502	
3	0	0	0	0	476	463	
4	0	0	0	0	527	454	
5	0	0	0	0	473	497	
6	0	0	0	0	488	526	
7	0	0	0	0	471	540	
8	0	0	0	0	460	527	
9	0	0	0	0	468	538	
10	0	0	0	0	467	563	
11	0	0	0	0	531	575	
12	0	0	0	0	546	553	
13	0	0	0	0	527	519	
14	0	0	0	0	574	499	
15	0	0	0	0	557	503	
0	0	0	0	0	551	504	
1	0	0	0	0	530	504	
2	0	0	0	0	519	504	
3	0	0	0	0	517	496	
4	0	0	0	0	491	492	
5	0	0	0	0	481	488	
6	0	0	0	0	480	493	
7	0	0	0	0	487	499	
8	0	0	0	0	488	499	
9	0	0	0	0	488	504	
10	0	0	0	0	492	511	
11	0	0	0	0	497	526	
12	0	0	0	0	499	531	
13	0	0	0	0	500	519	
14	0	0	0	0	502	515	
15	0	0	0	0	499	527	
0	0	0	0	0	503	527	
1	0	0	0	0	503	516	
2	0	0	0	0	504	506	
3	0	0	0	0	505	500	
4	0	0	0	0	496	507	
5	0	0	0	0	491	508	
6	0	0	0	0	493	512	
7	0	0	0	0	498	510	
8	0	0	0	0	504	512	
9	0	0	0	0	508	516	
10	0	0	0	0	518	517	
11	0	0	0	0	543	510	
12	0	0	0	0	542	499	
13	0	0	0	0	531	504	
14	0	0	0	0	527	500	
15	0	0	0	0	495	516	
0	0	0	0	0	479	520	
1	0	0	0	0	506	507	
2	0	0	0	0	503	512	
3	0	0	0	0	488	531	
4	0	0	0	0	475	533	
5	0	0	0	0	460	523	
6	0	0	0	0	475	504	
7	0	0	0	0	504	481	
8	0	0	0	0	527	472	
9	0	0	0	0	526	473	
10	0	0	0	0	519	488	
11	0	0	0	0	540	511	
12	0	0	0	0	543	540	
13	0	0	0	0	541	558	
14	0	0	0	0	539	549	
15	0	0	0	0	549	531	
0	0	0	0	0	555	490	
1	0	0	0	0	535	489	
2	0	0	0	0	500	503	
3	0	0	0	0	529	502	
4	0	0	0	0	505	500	
5	0	0	0	0	441	510	
6	0	0	0	0	425	539	
7	0	0	0	0	439	558	
8	0	0	0	0	483	548	
9	0	0	0	0	490	515	
10	0	0	0	0	479	479	
11	0	0	0	0	465	484	
12	0	0	0	0	469	515	
13	0	0	0	0	512	531	
14	0	0	0	0	521	524	
15	0	0	0	0	515	515	
0	0	0	0	0	509	515	
1	0	0	0	0	524	523	
2	0	0	0	0	535	518	
3	0	0	0	0	530	511	
4	0	0	0	0	487	501	
5	0	0	0	0	487	503	
6	0	0	0	0	499	504	
7	0	0	0	0	505	503	
8	0	0	0	0	507	504	
9	0	0	0	0	497	510	
10	0	0	0	0	499	515	
11	0	0	0	0	497	518	
12	0	0	0	0	499	518	
13	0	0	0	0	524	515	
14	0	0	0	0	568	514	
15	0	0	0	0	581	516	
0	0	0	0	0	550	507	
1	0	0	0	0	529	512	
2	0	0	0	0	503	513	
3	0	0	0	0	475	496	
4	0	0	0	0	447	479	
5	0	0	0	0	454	498	
6	0	0	0	0	450	521	
7	0	0	0	0	462	529	
8	0	0	0	0	453	528	
9	0	0	0	0	467	520	
10	0	0	0	0	487	522	
11	0	0	0	0	486	520	
12	0	0	0	0	516	508	
13	0	0	0	0	604	490	
14	0	0	0	0	627	473	
15	0	0	0	0	560	474	
0	0	0	0	0	502	497	
1	0	0	0	0	496	517	
2	0	0	0	0	486	540	
3	0	0	0	0	506	555	
4	0	0	0	0	550	553	
5	0	0	0	0	599	547	
6	0	0	0	0	532	524	
7	0	0	0	0	495	507	
8	0	0	0	0	474	493	
9	0	0	0	0	462	494	
10	0	0	0	0	448	494	
11	0	0	0	0	470	473	
12	0	0	0	0	495	472	
13	0	0	0	0	513	490	
14	0	0	0	0	511	488	
15	0	0	0	0	507	490	
0	0	0	0	0	511	505	
1	0	0	0	0	505	513	
2	0	0	0	0	504	526	
3	0	0	0	0	494	545	
4	0	0	0	0	486	555	
5	0	0	0	0	509	558	
6	0	0	0	0	486	548	
7	0	0	0	0	496	539	
8	0	0	0	0	510	520	
9	0	0	0	0	502	508	
10	0	0	0	0	496	519	
11	0	0	0	0	496	516	
12	0	0	0	0	499	504	
13	0	0	0	0	485	476	
14	0	0	0	0	481	473	
15	0	0	0	0	496	496	
0	0	0	0	0	524	505	
1	0	0	0	0	527	509	
2	0	0	0	0	514	512	
3	0	0	0	0	505	534	
4	0	0	0	0	531	550	
5	0	0	0	0	547	532	
6	0	0	0	0	543	519	
7	0	0	0	0	521	511	
8	0	0	0	0	513	501	
9	0	0	0	0	513	490	
10	0	0	0	0	517	491	
11	0	0	0	0	508	491	
12	0	0	0	0	526	504	
13	0	0	0	0	497	502	
14	0	0	0	0	464	474	
15	0	0	0	0	464	485	
0	0	0	0	0	507	494	
1	0	0	0	0	514	512	
2	0	0	0	0	500	520	
3	0	0	0	0	466	521	
4	0	0	0	0	489	530	
5	0	0	0	0	467	533	
6	0	0	0	0	473	532	
7	0	0	0	0	470	528	
8	0	0	0	0	465	537	
9	0	0	0	0	542	511	
10	0	0	0	0	585	473	
11	0	0	0	0	569	490	
12	0	0	0	0	534	500	
13	0	0	0	0	489	487	
14	0	0	0	0	484	483	
15	0	0	0	0	498	486	
0	0	0	0	0	505	513	
1	0	0	0	0	524	550	
2	0	0	0	0	535	567	
3	0	0	0	0	530	545	
4	0	0	0	0	536	543	
5	0	0	0	0	507	559	
6	0	0	0	0	467	534	
7	0	0	0	0	460	499	
8	0	0	0	0	467	478	
9	0	0	0	0	479	469	
10	0	0	0	0	479	452	
11	0	0	0	0	481	455	
12	0	0	0	0	511	471	
13	0	0	0	0	531	511	
14	0	0	0	0	547	534	
15	0	0	0	0	543	537	
0	0	0	0	0	519	534	
1	0	0	0	0	510	566	
2	0	0	0	0	499	587	
3	0	0	0	0	504	592	
4	0	0	0	0	503	543	
5	0	0	0	0	508	527	
6	0	0	0	0	511	534	
7	0	0	0	0	504	522	
8	0	0	0	0	507	520	
9	0	0	0	0	511	539	
10	0	0	0	0	504	517	
11	0	0	0	0	504	468	
12	0	0	0	0	500	442	
13	0	0	0	0	507	454	
14	0	0	0	0	507	493	
15	0	0	0	0	457	507	
0	0	0	0	0	450	515	
1	0	0	0	0	479	531	
2	0	0	0	0	526	513	
3	0	0	0	0	536	482	
4	0	0	0	0	525	475	
5	0	0	0	0	538	487	
6	0	0	0	0	525	491	
7	0	0	0	0	536	494	
8	0	0	0	0	524	489	
9	0	0	0	0	502	499	
10	0	0	0	0	504	520	
11	0	0	0	0	473	526	
12	0	0	0	0	495	540	
13	0	0	0	0	506	527	
14	0	0	0	0	507	521	
15	0	0	0	0	500	505	
0	0	0	0	0	496	496	
1	0	0	0	0	498	490	
2	0	0	0	0	501	455	
3	0	0	0	0	501	453	
4	0	0	0	0	502	484	
5	0	0	0	0	500	506	
6	0	0	0	0	499	527	
7	0	0	0	0	496	546	
8	0	0	0	0	492	547	
9	0	0	0	0	495	538	
10	0	0	0	0	494	540	
11	0	0	0	0	500	546	
12	0	0	0	0	505	536	
13	0	0	0	0	504	523	
14	0	0	0	0	500	506	
15	0	0	0	0	497	507	
0	0	0	0	0	500	506	
1	0	0	0	0	527	523	
2	0	0	0	0	525	530	
3	0	0	0	0	526	526	
4	0	0	0	0	513	499	
5	0	0	0	0	507	496	
6	0	0	0	0	504	473	
7	0	0	0	0	484	471	
8	0	0	0	0	499	475	
9	0	0	0	0	508	486	
10	0	0	0	0	494	492	
11	0	0	0	0	504	452	
12	0	0	0	0	527	450	
13	0	0	0	0	539	480	
14	0	0	0	0	553	526	
15	0	0	0	0	512	553	
0	0	0	0	0	484	561	
1	0	0	0	0	511	534	
2	0	0	0	0	515	550	
3	0	0	0	0	516	629	
4	0	0	0	0	512	643	
5	0	0	0	0	508	567	
6	0	0	0	0	504	545	
7	0	0	0	0	495	583	
8	0	0	0	0	489	598	
9	0	0	0	0	493	567	
10	0	0	0	0	497	524	
11	0	0	0	0	492	491	
12	0	0	0	0	494	472	
13	0	0	0	0	493	463	
14	0	0	0	0	494	435	
15	0	0	0	0	484	423	
0	0	0	0	0	489	432	
1	0	0	0	0	503	467	
2	0	0	0	0	521	496	
3	0	0	0	0	531	507	
4	0	0	0	0	527	503	
5	0	0	0	0	510	508	
6	0	0	0	0	497	520	
7	0	0	0	0	475	509	
8	0	0	0	0	488	510	
9	0	0	0	0	507	502	
10	0	0	0	0	498	473	
11	0	0	0	0	486	472	
12	0	0	0	0	489	495	
13	0	0	0	0	458	524	
14	0	0	0	0	416	534	
15	0	0	0	0	403	516	
0	0	0	0	0	449	534	
1	0	0	0	0	481	523	
2	0	0	0	0	556	543	
3	0	0	0	0	663	533	
4	0	0	0	0	713	506	
5	0	0	0	0	636	496	
6	0	0	0	0	622	499	
7	0	0	0	0	670	505	
8	0	0	0	0	562	490	
9	0	0	0	0	507	495	
10	0	0	0	0	454	529	
11	0	0	0	0	451	543	
12	0	0	0	0	439	537	
13	0	0	0	0	433	543	
14	0	0	0	0	448	545	
15	0	0	0	0	454	535	
0	0	0	0	0	459	521	
1	0	0	0	0	462	500	
2	0	0	0	0	466	483	
3	0	0	0	0	472	470	
4	0	0	0	0	479	464	
5	0	0	0	0	483	474	
6	0	0	0	0	489	486	
7	0	0	0	0	496	489	
8	0	0	0	0	500	505	
9	0	0	0	0	502	510	
10	0	0	0	0	510	503	
11	0	0	0	0	519	528	
12	0	0	0	0	519	540	
13	0	0	0	0	514	514	
14	0	0	0	0	514	528	
15	0	0	0	0	517	565	
0	0	0	0	0	513	580	
1	0	0	0	0	509	551	
2	0	0	0	0	507	496	
3	0	0	0	0	508	470	
4	0	0	0	0	510	470	
5	0	0	0	0	507	476	
6	0	0	0	0	509	502	
7	0	0	0	0	510	520	
8	0	0	0	0	512	541	
9	0	0	0	0	495	544	
10	0	0	0	0	506	536	
11	0	0	0	0	532	546	
12	0	0	0	0	522	530	
13	0	0	0	0	504	500	
14	0	0	0	0	514	492	
15	0	0	0	0	511	508	
0	0	0	0	0	505	517	
1	0	0	0	0	501	526	
2	0	0	0	0	504	522	
3	0	0	0	0	500	504	
4	0	0	0	0	496	511	
5	0	0	0	0	498	542	
6	0	0	0	0	499	508	
7	0	0	0	0	480	464	
8	0	0	0	0	492	455	
9	0	0	0	0	506	468	
10	0	0	0	0	526	478	
11	0	0	0	0	509	431	
12	0	0	0	0	489	403	
13	0	0	0	0	498	443	
14	0	0	0	0	521	507	
15	0	0	0	0	513	560	
0	0	0	0	0	512	582	
1	0	0	0	0	504	599	
2	0	0	0	0	496	685	
3	0	0	0	0	460	716	
4	0	0	0	0	451	655	
5	0	0	0	0	492	521	
6	0	0	0	0	530	425	
7	0	0	0	0	583	420	
8	0	0	0	0	582	442	
9	0	0	0	0	556	471	
10	0	0	0	0	539	483	
11	0	0	0	0	495	500	
12	0	0	0	0	484	507	
13	0	0	0	0	491	488	
14	0	0	0	0	481	484	
15	0	0	0	0	506	465	
0	0	0	0	0	505	463	
1	0	0	0	0	509	478	
2	0	0	0	0	515	506	
3	0	0	0	0	499	531	
4	0	0	0	0	487	568	
5	0	0	0	0	490	581	
6	0	0	0	0	496	561	
7	0	0	0	0	504	514	
8	0	0	0	0	499	492	
9	0	0	0	0	489	476	
10	0	0	0	0	495	478	
11	0	0	0	0	499	487	
12	0	0	0	0	500	485	
13	0	0	0	0	500	508	
14	0	0	0	0	503	503	
15	0	0	0	0	505	509	
0	0	0	0	0	500	514	
1	0	0	0	0	497	510	
2	0	0	0	0	503	516	
3	0	0	0	0	502	511	
4	0	0	0	0	495	499	
5	0	0	0	0	493	495	
6	0	0	0	0	503	521	
7	0	0	0	0	503	536	
8	0	0	0	0	490	536	
9	0	0	0	0	529	547	
10	0	0	0	0	543	551	
11	0	0	0	0	537	527	
12	0	0	0	0	563	499	
13	0	0	0	0	532	507	
14	0	0	0	0	516	494	
15	0	0	0	0	519	477	
0	0	0	0	0	505	489	
1	0	0	0	0	496	507	
2	0	0	0	0	487	515	
3	0	0	0	0	470	547	
4	0	0	0	0	476	560	
5	0	0	0	0	488	567	
6	0	0	0	0	490	562	
7	0	0	0	0	494	514	
8	0	0	0	0	495	460	
9	0	0	0	0	508	440	
10	0	0	0	0	491	492	
11	0	0	0	0	511	555	
12	0	0	0	0	519	538	
13	0	0	0	0	517	512	
14	0	0	0	0	515	501	
15	0	0	0	0	501	498	
0	0	0	0	0	508	492	
1	0	0	0	0	502	491	
2	0	0	0	0	504	506	
3	0	0	0	0	510	512	
4	0	0	0	0	512	508	
5	0	0	0	0	499	506	
6	0	0	0	0	500	514	
7	0	0	0	0	507	539	
8	0	0	0	0	505	554	
9	0	0	0	0	497	531	
10	0	0	0	0	495	509	
11	0	0	0	0	497	496	
12	0	0	0	0	502	493	
13	0	0	0	0	504	502	
14	0	0	0	0	506	496	
15	0	0	0	0	511	505	
0	0	0	0	0	509	497	
1	0	0	0	0	504	470	
2	0	0	0	0	512	475	
3	0	0	0	0	511	491	
4	0	0	0	0	508	486	
5	0	0	0	0	508	491	
6	0	0	0	0	515	512	
7	0	0	0	0	512	561	
8	0	0	0	0	506	583	
9	0	0	0	0	499	559	
10	0	0	0	0	505	531	
11	0	0	0	0	525	536	
12	0	0	0	0	511	531	
13	0	0	0	0	512	513	
14	0	0	0	0	517	503	
15	0	0	0	0	482	493	
0	0	0	0	0	497	493	
1	0	0	0	0	500	493	
2	0	0	0	0	494	496	
3	0	0	0	0	484	510	
4	0	0	0	0	470	523	
5	0	0	0	0	476	514	
6	0	0	0	0	497	472	
7	0	0	0	0	511	463	
8	0	0	0	0	504	460	
9	0	0	0	0	510	480	
10	0	0	0	0	538	500	
11	0	0	0	0	536	532	
12	0	0	0	0	521	573	
13	0	0	0	0	502	589	
14	0	0	0	0	502	543	
15	0	0	0	0	523	515	
0	0	0	0	0	530	533	
1	0	0	0	0	561	524	
2	0	0	0	0	559	503	
3	0	0	0	0	503	508	
4	0	0	0	0	486	499	
5	0	0	0	0	488	499	
6	0	0	0	0	494	532	
7	0	0	0	0	493	527	
8	0	0	0	0	496	526	
9	0	0	0	0	491	540	
10	0	0	0	0	494	533	
11	0	0	0	0	499	536	
12	0	0	0	0	508	497	
13	0	0	0	0	507	442	
14	0	0	0	0	504	430	
15	0	0	0	0	508	449	
0	0	0	0	0	473	486	
1	0	0	0	0	472	527	
2	0	0	0	0	492	555	
3	0	0	0	0	505	550	
4	0	0	0	0	505	551	
5	0	0	0	0	505	552	
6	0	0	0	0	510	527	
7	0	0	0	0	505	514	
8	0	0	0	0	503	518	
9	0	0	0	0	502	515	
10	0	0	0	0	504	520	
11	0	0	0	0	498	500	
12	0	0	0	0	496	477	
13	0	0	0	0	495	481	
14	0	0	0	0	507	496	
15	0	0	0	0	522	508	
0	0	0	0	0	531	507	
1	0	0	0	0	521	505	
2	0	0	0	0	520	493	
3	0	0	0	0	532	485	
4	0	0	0	0	519	487	
5	0	0	0	0	494	491	
6	0	0	0	0	495	504	
7	0	0	0	0	503	521	
8	0	0	0	0	502	527	
9	0	0	0	0	502	542	
10	0	0	0	0	503	563	
11	0	0	0	0	505	574	
12	0	0	0	0	508	532	
13	0	0	0	0	504	479	
14	0	0	0	0	501	486	
15	0	0	0	0	504	504	
0	0	0	0	0	500	504	
1	0	0	0	0	505	493	
2	0	0	0	0	510	483	
3	0	0	0	0	510	495	
4	0	0	0	0	510	524	
5	0	0	0	0	502	507	
6	0	0	0	0	496	494	
7	0	0	0	0	496	511	
8	0	0	0	0	505	519	
9	0	0	0	0	510	532	
10	0	0	0	0	514	547	
11	0	0	0	0	513	540	
12	0	0	0	0	510	534	
13	0	0	0	0	505	523	
14	0	0	0	0	507	510	
15	0	0	0	0	508	515	
0	0	0	0	0	496	511	
1	0	0	0	0	482	516	
2	0	0	0	0	478	520	
3	0	0	0	0	493	510	
4	0	0	0	0	494	502	
5	0	0	0	0	517	509	
6	0	0	0	0	533	510	
7	0	0	0	0	517	503	
8	0	0	0	0	514	489	
9	0	0	0	0	497	483	
10	0	0	0	0	500	499	
11	0	0	0	0	499	518	
12	0	0	0	0	499	516	
13	0	0	0	0	491	498	
14	0	0	0	0	492	500	
15	0	0	0	0	509	525	
0	0	0	0	0	526	539	
1	0	0	0	0	534	523	
2	0	0	0	0	533	504	
3	0	0	0	0	516	486	
4	0	0	0	0	510	508	
5	0	0	0	0	498	530	
6	0	0	0	0	489	510	
7	0	0	0	0	477	476	
8	0	0	0	0	478	462	
9	0	0	0	0	496	470	
10	0	0	0	0	519	507	
11	0	0	0	0	536	537	
12	0	0	0	0	538	553	
13	0	0	0	0	519	547	
14	0	0	0	0	509	531	
15	0	0	0	0	505	519	
0	0	0	0	0	494	511	
1	0	0	0	0	483	501	
2	0	0	0	0	495	507	
3	0	0	0	0	504	527	
4	0	0	0	0	508	553	
5	0	0	0	0	503	556	
6	0	0	0	0	499	539	
7	0	0	0	0	500	519	
8	0	0	0	0	499	511	
9	0	0	0	0	497	502	
10	0	0	0	0	501	510	
11	0	0	0	0	508	512	
12	0	0	0	0	509	504	
13	0	0	0	0	517	505	
14	0	0	0	0	509	510	
15	0	0	0	0	504	509	
0	0	0	0	0	514	508	
1	0	0	0	0	512	496	
2	0	0	0	0	492	474	
3	0	0	0	0	487	469	
4	0	0	0	0	499	493	
5	0	0	0	0	515	497	
6	0	0	0	0	513	477	
7	0	0	0	0	499	464	
8	0	0	0	0	512	487	
9	0	0	0	0	510	492	
10	0	0	0	0	496	518	
11	0	0	0	0	515	542	
12	0	0	0	0	511	547	
13	0	0	0	0	504	552	
14	0	0	0	0	501	559	
15	0	0	0	0	496	561	
0	0	0	0	0	491	536	
1	0	0	0	0	486	504	
2	0	0	0	0	492	466	
3	0	0	0	0	498	481	
4	0	0	0	0	508	531	
5	0	0	0	0	522	572	
6	0	0	0	0	543	560	
7	0	0	0	0	558	525	
8	0	0	0	0	549	502	
9	0	0	0	0	509	508	
10	0	0	0	0	483	524	
11	0	0	0	0	487	532	
12	0	0	0	0	488	501	
13	0	0	0	0	491	472	
14	0	0	0	0	493	459	
15	0	0	0	0	496	456	
0	0	0	0	0	496	470	
1	0	0	0	0	499	501	
2	0	0	0	0	515	533	
3	0	0	0	0	514	529	
4	0	0	0	0	512	524	
5	0	0	0	0	508	523	
6	0	0	0	0	506	529	
7	0	0	0	0	504	508	
8	0	0	0	0	502	497	
9	0	0	0	0	505	508	
10	0	0	0	0	502	531	
11	0	0	0	0	480	532	
12	0	0	0	0	500	519	
13	0	0	0	0	517	529	
14	0	0	0	0	494	510	
15	0	0	0	0	492	487	
0	0	0	0	0	504	495	
1	0	0	0	0	507	504	
2	0	0	0	0	505	509	
3	0	0	0	0	507	499	
4	0	0	0	0	510	482	
5	0	0	0	0	512	493	
6	0	0	0	0	509	514	
7	0	0	0	0	510	538	
8	0	0	0	0	512	557	
9	0	0	0	0	512	550	
10	0	0	0	0	516	519	
11	0	0	0	0	505	491	
12	0	0	0	0	500	496	
13	0	0	0	0	497	498	
14	0	0	0	0	505	515	
15	0	0	0	0	496	519	
0	0	0	0	0	499	532	
1	0	0	0	0	504	531	
2	0	0	0	0	503	547	
3	0	0	0	0	496	529	
4	0	0	0	0	503	501	
5	0	0	0	0	526	484	
6	0	0	0	0	547	482	
7	0	0	0	0	541	488	
8	0	0	0	0	505	483	
9	0	0	0	0	492	493	
10	0	0	0	0	494	519	
11	0	0	0	0	488	540	
12	0	0	0	0	478	542	
13	0	0	0	0	477	516	
14	0	0	0	0	498	498	
15	0	0	0	0	532	520	
0	0	0	0	0	553	539	
1	0	0	0	0	528	531	
2	0	0	0	0	497	510	
3	0	0	0	0	490	494	
4	0	0	0	0	496	492	
5	0	0	0	0	504	496	
6	0	0	0	0	496	496	
7	0	0	0	0	504	499	
8	0	0	0	0	511	503	
9	0	0	0	0	515	509	
10	0	0	0	0	504	515	
11	0	0	0	0	486	530	
12	0	0	0	0	492	512	
13	0	0	0	0	499	498	
14	0	0	0	0	496	497	
15	0	0	0	0	497	521	
0	0	0	0	0	507	537	
1	0	0	0	0	517	545	
2	0	0	0	0	498	536	
3	0	0	0	0	504	534	
4	0	0	0	0	498	509	
5	0	0	0	0	505	499	
6	0	0	0	0	522	486	
7	0	0	0	0	515	462	
8	0	0	0	0	529	461	
9	0	0	0	0	523	467	
10	0	0	0	0	527	505	
11	0	0	0	0	527	519	
12	0	0	0	0	511	538	
13	0	0	0	0	498	571	
14	0	0	0	0	492	577	
15	0	0	0	0	489	572	
0	0	0	0	0	491	542	
1	0	0	0	0	493	485	
2	0	0	0	0	498	459	
3	0	0	0	0	504	497	
4	0	0	0	0	513	523	
5	0	0	0	0	508	516	
6	0	0	0	0	497	502	
7	0	0	0	0	495	499	
8	0	0	0	0	497	498	
9	0	0	0	0	501	496	
10	0	0	0	0	499	496	
11	0	0	0	0	481	495	
12	0	0	0	0	488	493	
13	0	0	0	0	508	501	
14	0	0	0	0	517	517	
15	0	0	0	0	520	536	
0	0	0	0	0	509	543	
1	0	0	0	0	506	536	
2	0	0	0	0	511	527	
3	0	0	0	0	514	542	
