# OpenSignals Text File Format. Version 1
# {"98:D3:71:FE:38:C0": {"position": 0, "device": "bitalino_rev", "device name": "98:D3:71:FE:38:C0", "device connection": "BTH98:D3:71:FE:38:C0", "sampling rate": 1000, "resolution": [4, 1, 1, 1, 1, 10, 10], "firmware version": 1282, "comments": "", "keywords": "", "mode": 0, "sync interval": 2, "date": "2026-6-12", "time": "12:8:41.276", "channels": [1, 2], "sensor": ["EMGBITREV", "EMGBITREV"], "label": ["A1", "A2"], "column": ["nSeq", "I1", "I2", "O1", "O2", "A1", "A2"], "special": [{}, {}], "digital IO": [0, 0, 1, 1]}}
# EndOfHeader
0	0	0	0	0	510	512	
1	0	0	0	0	513	512	
2	0	0	0	0	509	511	
3	0	0	0	0	517	511	
4	0	0	0	0	524	509	
5	0	0	0	0	522	510	
6	0	0	0	0	524	511	
7	0	0	0	0	527	511	
8	0	0	0	0	528	512	
9	0	0	0	0	527	511	
10	0	0	0	0	518	510	
11	0	0	0	0	462	511	
12	0	0	0	0	407	511	
13	0	0	0	0	440	513	
14	0	0	0	0	490	512	
15	0	0	0	0	516	512	
0	0	0	0	0	523	512	
1	0	0	0	0	516	512	
2	0	0	0	0	511	513	
3	0	0	0	0	512	513	
4	0	0	0	0	508	514	
5	0	0	0	0	497	512	
6	0	0	0	0	499	513	
7	0	0	0	0	515	512	
8	0	0	0	0	527	512	
9	0	0	0	0	521	512	
10	0	0	0	0	512	515	
11	0	0	0	0	497	517	
12	0	0	0	0	496	514	
13	0	0	0	0	503	515	
14	0	0	0	0	487	517	
15	0	0	0	0	472	512	
0	0	0	0	0	489	514	
1	0	0	0	0	508	513	
2	0	0	0	0	520	512	
3	0	0	0	0	522	512	
4	0	0	0	0	519	512	
5	0	0	0	0	511	513	
6	0	0	0	0	496	514	
7	0	0	0	0	482	512	
8	0	0	0	0	496	508	
9	0	0	0	0	508	510	
10	0	0	0	0	514	515	
11	0	0	0	0	516	513	
12	0	0	0	0	518	512	
13	0	0	0	0	519	512	
14	0	0	0	0	515	511	
15	0	0	0	0	505	511	
0	0	0	0	0	507	511	
1	0	0	0	0	507	510	
2	0	0	0	0	506	508	
3	0	0	0	0	508	512	
4	0	0	0	0	507	512	
5	0	0	0	0	509	511	
6	0	0	0	0	512	512	
7	0	0	0	0	524	510	
8	0	0	0	0	531	511	
9	0	0	0	0	527	511	
10	0	0	0	0	514	514	
11	0	0	0	0	496	511	
12	0	0	0	0	495	513	
13	0	0	0	0	485	513	
14	0	0	0	0	462	509	
15	0	0	0	0	465	508	
0	0	0	0	0	492	510	
1	0	0	0	0	520	512	
2	0	0	0	0	526	510	
3	0	0	0	0	520	511	
4	0	0	0	0	496	512	
5	0	0	0	0	483	510	
6	0	0	0	0	483	511	
7	0	0	0	0	499	509	
8	0	0	0	0	505	511	
9	0	0	0	0	509	511	
10	0	0	0	0	510	510	
11	0	0	0	0	512	512	
12	0	0	0	0	510	515	
13	0	0	0	0	511	511	
14	0	0	0	0	511	512	
15	0	0	0	0	513	511	
0	0	0	0	0	511	514	
1	0	0	0	0	508	511	
2	0	0	0	0	506	512	
3	0	0	0	0	505	512	
4	0	0	0	0	506	511	
5	0	0	0	0	507	512	
6	0	0	0	0	505	513	
7	0	0	0	0	503	513	
8	0	0	0	0	502	514	
9	0	0	0	0	503	509	
10	0	0	0	0	505	512	
11	0	0	0	0	513	511	
12	0	0	0	0	518	513	
13	0	0	0	0	515	512	
14	0	0	0	0	514	511	
15	0	0	0	0	515	510	
0	0	0	0	0	516	511	
1	0	0	0	0	516	511	
2	0	0	0	0	517	511	
3	0	0	0	0	496	511	
4	0	0	0	0	468	512	
5	0	0	0	0	473	510	
6	0	0	0	0	487	511	
7	0	0	0	0	494	512	
8	0	0	0	0	511	511	
9	0	0	0	0	531	512	
10	0	0	0	0	542	509	
11	0	0	0	0	533	511	
12	0	0	0	0	510	512	
13	0	0	0	0	497	510	
14	0	0	0	0	480	510	
15	0	0	0	0	456	512	
0	0	0	0	0	472	512	
1	0	0	0	0	485	511	
2	0	0	0	0	483	510	
3	0	0	0	0	485	510	
4	0	0	0	0	504	512	
5	0	0	0	0	515	510	
6	0	0	0	0	515	510	
7	0	0	0	0	515	510	
8	0	0	0	0	516	509	
9	0	0	0	0	520	512	
10	0	0	0	0	519	513	
11	0	0	0	0	516	512	
12	0	0	0	0	512	510	
13	0	0	0	0	507	511	
14	0	0	0	0	508	513	
15	0	0	0	0	507	513	
0	0	0	0	0	508	513	
1	0	0	0	0	515	508	
2	0	0	0	0	514	512	
3	0	0	0	0	512	512	
4	0	0	0	0	519	512	
5	0	0	0	0	515	512	
6	0	0	0	0	512	512	
7	0	0	0	0	503	512	
8	0	0	0	0	487	513	
9	0	0	0	0	488	512	
10	0	0	0	0	501	512	
11	0	0	0	0	510	512	
12	0	0	0	0	500	511	
13	0	0	0	0	495	513	
14	0	0	0	0	498	513	
15	0	0	0	0	503	514	
0	0	0	0	0	507	512	
1	0	0	0	0	519	513	
2	0	0	0	0	519	517	
3	0	0	0	0	520	516	
4	0	0	0	0	513	512	
5	0	0	0	0	506	512	
6	0	0	0	0	508	513	
7	0	0	0	0	492	513	
8	0	0	0	0	496	510	
9	0	0	0	0	486	512	
10	0	0	0	0	478	511	
11	0	0	0	0	481	512	
12	0	0	0	0	496	514	
13	0	0	0	0	510	513	
14	0	0	0	0	514	515	
15	0	0	0	0	515	514	
0	0	0	0	0	518	512	
1	0	0	0	0	517	515	
2	0	0	0	0	512	511	
3	0	0	0	0	515	511	
4	0	0	0	0	519	514	
5	0	0	0	0	515	513	
6	0	0	0	0	503	512	
7	0	0	0	0	491	513	
8	0	0	0	0	487	513	
9	0	0	0	0	493	515	
10	0	0	0	0	505	514	
11	0	0	0	0	508	513	
12	0	0	0	0	511	512	
13	0	0	0	0	511	513	
14	0	0	0	0	510	512	
15	0	0	0	0	518	512	
0	0	0	0	0	524	511	
1	0	0	0	0	520	514	
2	0	0	0	0	502	511	
3	0	0	0	0	503	510	
4	0	0	0	0	518	510	
5	0	0	0	0	525	510	
6	0	0	0	0	527	514	
7	0	0	0	0	502	511	
8	0	0	0	0	448	511	
9	0	0	0	0	435	509	
10	0	0	0	0	446	510	
11	0	0	0	0	485	509	
12	0	0	0	0	511	510	
13	0	0	0	0	518	511	
14	0	0	0	0	519	508	
15	0	0	0	0	516	510	
0	0	0	0	0	515	513	
1	0	0	0	0	512	511	
2	0	0	0	0	512	511	
3	0	0	0	0	513	511	
4	0	0	0	0	511	511	
5	0	0	0	0	512	511	
6	0	0	0	0	511	511	
7	0	0	0	0	513	510	
8	0	0	0	0	521	508	
9	0	0	0	0	521	510	
10	0	0	0	0	517	511	
11	0	0	0	0	516	510	
12	0	0	0	0	514	511	
13	0	0	0	0	510	512	
14	0	0	0	0	508	512	
15	0	0	0	0	502	514	
0	0	0	0	0	490	514	
1	0	0	0	0	482	512	
2	0	0	0	0	489	513	
3	0	0	0	0	482	508	
4	0	0	0	0	502	509	
5	0	0	0	0	511	509	
6	0	0	0	0	516	510	
7	0	0	0	0	526	513	
8	0	0	0	0	521	512	
9	0	0	0	0	510	511	
10	0	0	0	0	501	509	
11	0	0	0	0	494	511	
12	0	0	0	0	483	515	
13	0	0	0	0	476	513	
14	0	0	0	0	497	510	
15	0	0	0	0	507	512	
0	0	0	0	0	514	508	
1	0	0	0	0	517	509	
2	0	0	0	0	526	512	
3	0	0	0	0	531	515	
4	0	0	0	0	531	511	
5	0	0	0	0	515	509	
6	0	0	0	0	508	513	
7	0	0	0	0	497	511	
8	0	0	0	0	477	511	
9	0	0	0	0	467	512	
10	0	0	0	0	473	512	
11	0	0	0	0	492	511	
12	0	0	0	0	510	511	
13	0	0	0	0	512	514	
14	0	0	0	0	511	510	
15	0	0	0	0	511	513	
0	0	0	0	0	511	511	
1	0	0	0	0	509	513	
2	0	0	0	0	516	513	
3	0	0	0	0	528	513	
4	0	0	0	0	540	512	
5	0	0	0	0	543	512	
6	0	0	0	0	519	511	
7	0	0	0	0	477	511	
8	0	0	0	0	463	513	
9	0	0	0	0	468	514	
10	0	0	0	0	491	514	
11	0	0	0	0	501	514	
12	0	0	0	0	509	513	
13	0	0	0	0	515	515	
14	0	0	0	0	510	514	
15	0	0	0	0	508	513	
0	0	0	0	0	515	515	
1	0	0	0	0	519	513	
2	0	0	0	0	520	512	
3	0	0	0	0	512	513	
4	0	0	0	0	508	515	
5	0	0	0	0	513	513	
6	0	0	0	0	511	512	
7	0	0	0	0	497	512	
8	0	0	0	0	472	511	
9	0	0	0	0	487	511	
10	0	0	0	0	505	511	
11	0	0	0	0	511	511	
12	0	0	0	0	513	511	
13	0	0	0	0	515	513	
14	0	0	0	0	516	510	
15	0	0	0	0	516	510	
0	0	0	0	0	519	512	
1	0	0	0	0	504	511	
2	0	0	0	0	473	510	
3	0	0	0	0	488	509	
4	0	0	0	0	519	512	
5	0	0	0	0	527	513	
6	0	0	0	0	528	509	
7	0	0	0	0	536	510	
8	0	0	0	0	510	510	
9	0	0	0	0	472	512	
10	0	0	0	0	471	512	
11	0	0	0	0	498	512	
12	0	0	0	0	516	513	
13	0	0	0	0	513	511	
14	0	0	0	0	466	511	
15	0	0	0	0	436	509	
0	0	0	0	0	472	511	
1	0	0	0	0	508	512	
2	0	0	0	0	520	513	
3	0	0	0	0	522	514	
4	0	0	0	0	520	511	
5	0	0	0	0	520	510	
6	0	0	0	0	518	511	
7	0	0	0	0	516	510	
8	0	0	0	0	511	511	
9	0	0	0	0	509	513	
10	0	0	0	0	510	515	
11	0	0	0	0	510	512	
12	0	0	0	0	505	511	
13	0	0	0	0	502	514	
14	0	0	0	0	502	510	
15	0	0	0	0	507	510	
0	0	0	0	0	506	509	
1	0	0	0	0	512	510	
2	0	0	0	0	513	509	
3	0	0	0	0	512	513	
4	0	0	0	0	513	512	
5	0	0	0	0	509	511	
6	0	0	0	0	510	511	
7	0	0	0	0	506	512	
8	0	0	0	0	503	513	
9	0	0	0	0	499	513	
10	0	0	0	0	483	512	
11	0	0	0	0	491	512	
12	0	0	0	0	509	513	
13	0	0	0	0	514	513	
14	0	0	0	0	512	515	
15	0	0	0	0	505	515	
0	0	0	0	0	508	515	
1	0	0	0	0	519	513	
2	0	0	0	0	518	511	
3	0	0	0	0	519	512	
4	0	0	0	0	515	512	
5	0	0	0	0	521	511	
6	0	0	0	0	525	510	
7	0	0	0	0	513	508	
8	0	0	0	0	472	511	
9	0	0	0	0	438	513	
10	0	0	0	0	467	519	
11	0	0	0	0	499	517	
12	0	0	0	0	535	513	
13	0	0	0	0	531	510	
14	0	0	0	0	489	511	
15	0	0	0	0	462	511	
0	0	0	0	0	467	512	
1	0	0	0	0	495	512	
2	0	0	0	0	509	514	
3	0	0	0	0	520	513	
4	0	0	0	0	523	512	
5	0	0	0	0	543	513	
6	0	0	0	0	547	512	
7	0	0	0	0	536	511	
8	0	0	0	0	535	512	
9	0	0	0	0	539	512	
10	0	0	0	0	509	511	
11	0	0	0	0	473	512	
12	0	0	0	0	473	512	
13	0	0	0	0	448	512	
14	0	0	0	0	443	511	
15	0	0	0	0	490	512	
0	0	0	0	0	518	512	
1	0	0	0	0	522	513	
2	0	0	0	0	526	513	
3	0	0	0	0	526	511	
4	0	0	0	0	518	512	
5	0	0	0	0	498	513	
6	0	0	0	0	481	511	
7	0	0	0	0	477	512	
8	0	0	0	0	484	516	
9	0	0	0	0	505	511	
10	0	0	0	0	512	512	
11	0	0	0	0	521	513	
12	0	0	0	0	532	515	
13	0	0	0	0	531	514	
14	0	0	0	0	535	513	
15	0	0	0	0	529	512	
0	0	0	0	0	519	511	
1	0	0	0	0	500	509	
2	0	0	0	0	487	510	
3	0	0	0	0	464	511	
4	0	0	0	0	497	511	
5	0	0	0	0	532	511	
6	0	0	0	0	524	511	
7	0	0	0	0	505	511	
8	0	0	0	0	502	512	
9	0	0	0	0	511	511	
10	0	0	0	0	507	513	
11	0	0	0	0	491	511	
12	0	0	0	0	440	513	
13	0	0	0	0	469	512	
14	0	0	0	0	512	513	
15	0	0	0	0	522	515	
0	0	0	0	0	520	512	
1	0	0	0	0	521	511	
2	0	0	0	0	520	513	
3	0	0	0	0	519	515	
4	0	0	0	0	513	512	
5	0	0	0	0	490	511	
6	0	0	0	0	486	511	
7	0	0	0	0	494	512	
8	0	0	0	0	501	511	
9	0	0	0	0	512	512	
10	0	0	0	0	519	511	
11	0	0	0	0	528	512	
12	0	0	0	0	528	511	
13	0	0	0	0	517	513	
14	0	0	0	0	489	513	
15	0	0	0	0	471	510	
0	0	0	0	0	483	512	
1	0	0	0	0	500	511	
2	0	0	0	0	510	513	
3	0	0	0	0	513	513	
4	0	0	0	0	513	511	
5	0	0	0	0	510	513	
6	0	0	0	0	511	510	
7	0	0	0	0	514	511	
8	0	0	0	0	509	512	
9	0	0	0	0	504	510	
10	0	0	0	0	505	510	
11	0	0	0	0	506	511	
12	0	0	0	0	508	513	
13	0	0	0	0	502	512	
14	0	0	0	0	500	511	
15	0	0	0	0	510	511	
0	0	0	0	0	514	513	
1	0	0	0	0	518	509	
2	0	0	0	0	515	511	
3	0	0	0	0	508	512	
4	0	0	0	0	515	513	
5	0	0	0	0	529	513	
6	0	0	0	0	503	513	
7	0	0	0	0	440	510	
8	0	0	0	0	448	511	
9	0	0	0	0	495	512	
10	0	0	0	0	515	512	
11	0	0	0	0	519	511	
12	0	0	0	0	516	511	
13	0	0	0	0	525	510	
14	0	0	0	0	531	511	
15	0	0	0	0	526	511	
0	0	0	0	0	512	510	
1	0	0	0	0	487	511	
2	0	0	0	0	459	513	
3	0	0	0	0	484	512	
4	0	0	0	0	515	509	
5	0	0	0	0	524	510	
6	0	0	0	0	526	512	
7	0	0	0	0	523	512	
8	0	0	0	0	507	510	
9	0	0	0	0	483	509	
10	0	0	0	0	457	511	
11	0	0	0	0	496	512	
12	0	0	0	0	518	513	
13	0	0	0	0	523	512	
14	0	0	0	0	534	513	
15	0	0	0	0	528	512	
0	0	0	0	0	507	511	
1	0	0	0	0	464	512	
2	0	0	0	0	457	511	
3	0	0	0	0	495	512	
4	0	0	0	0	520	512	
5	0	0	0	0	521	515	
6	0	0	0	0	529	513	
7	0	0	0	0	539	513	
8	0	0	0	0	535	511	
9	0	0	0	0	506	511	
10	0	0	0	0	459	511	
11	0	0	0	0	447	511	
12	0	0	0	0	487	512	
13	0	0	0	0	510	511	
14	0	0	0	0	516	512	
15	0	0	0	0	519	511	
0	0	0	0	0	525	513	
1	0	0	0	0	527	514	
2	0	0	0	0	510	512	
3	0	0	0	0	473	511	
4	0	0	0	0	467	513	
5	0	0	0	0	504	511	
6	0	0	0	0	512	510	
7	0	0	0	0	508	512	
8	0	0	0	0	521	515	
9	0	0	0	0	539	510	
10	0	0	0	0	545	510	
11	0	0	0	0	528	513	
12	0	0	0	0	496	511	
13	0	0	0	0	474	508	
14	0	0	0	0	485	512	
15	0	0	0	0	502	511	
0	0	0	0	0	503	511	
1	0	0	0	0	500	513	
2	0	0	0	0	495	511	
3	0	0	0	0	499	513	
4	0	0	0	0	515	513	
5	0	0	0	0	526	511	
6	0	0	0	0	515	510	
7	0	0	0	0	511	513	
8	0	0	0	0	514	511	
9	0	0	0	0	499	514	
10	0	0	0	0	481	513	
11	0	0	0	0	494	512	
12	0	0	0	0	503	512	
13	0	0	0	0	506	513	
14	0	0	0	0	508	512	
15	0	0	0	0	510	512	
0	0	0	0	0	509	510	
1	0	0	0	0	516	510	
2	0	0	0	0	524	512	
3	0	0	0	0	523	511	
4	0	0	0	0	518	511	
5	0	0	0	0	507	511	
6	0	0	0	0	498	512	
7	0	0	0	0	510	510	
8	0	0	0	0	500	511	
9	0	0	0	0	455	512	
10	0	0	0	0	464	512	
11	0	0	0	0	480	510	
12	0	0	0	0	489	510	
13	0	0	0	0	507	511	
14	0	0	0	0	517	512	
15	0	0	0	0	517	512	
0	0	0	0	0	523	511	
1	0	0	0	0	535	513	
2	0	0	0	0	540	511	
3	0	0	0	0	535	510	
4	0	0	0	0	537	511	
5	0	0	0	0	536	510	
6	0	0	0	0	530	509	
7	0	0	0	0	491	511	
8	0	0	0	0	418	511	
9	0	0	0	0	380	512	
10	0	0	0	0	444	511	
11	0	0	0	0	503	511	
12	0	0	0	0	521	514	
13	0	0	0	0	523	515	
14	0	0	0	0	525	509	
15	0	0	0	0	525	510	
0	0	0	0	0	534	508	
1	0	0	0	0	521	509	
2	0	0	0	0	496	511	
3	0	0	0	0	491	511	
4	0	0	0	0	509	511	
5	0	0	0	0	513	514	
6	0	0	0	0	528	512	
7	0	0	0	0	530	514	
8	0	0	0	0	520	513	
9	0	0	0	0	504	513	
10	0	0	0	0	496	512	
11	0	0	0	0	493	512	
12	0	0	0	0	505	510	
13	0	0	0	0	514	512	
14	0	0	0	0	515	512	
15	0	0	0	0	507	512	
0	0	0	0	0	491	511	
1	0	0	0	0	470	513	
2	0	0	0	0	494	514	
3	0	0	0	0	511	513	
4	0	0	0	0	511	513	
5	0	0	0	0	511	515	
6	0	0	0	0	512	510	
7	0	0	0	0	513	511	
8	0	0	0	0	508	511	
9	0	0	0	0	502	513	
10	0	0	0	0	497	512	
11	0	0	0	0	505	514	
12	0	0	0	0	508	514	
13	0	0	0	0	518	511	
14	0	0	0	0	526	512	
15	0	0	0	0	530	512	
0	0	0	0	0	534	510	
1	0	0	0	0	527	513	
2	0	0	0	0	511	512	
3	0	0	0	0	470	513	
4	0	0	0	0	426	512	
5	0	0	0	0	446	511	
6	0	0	0	0	499	511	
7	0	0	0	0	514	514	
8	0	0	0	0	518	513	
9	0	0	0	0	511	512	
10	0	0	0	0	509	513	
11	0	0	0	0	513	513	
12	0	0	0	0	511	512	
13	0	0	0	0	523	514	
14	0	0	0	0	536	514	
15	0	0	0	0	540	511	
0	0	0	0	0	528	511	
1	0	0	0	0	527	512	
2	0	0	0	0	531	512	
3	0	0	0	0	504	512	
4	0	0	0	0	422	511	
5	0	0	0	0	403	512	
6	0	0	0	0	463	513	
7	0	0	0	0	487	515	
8	0	0	0	0	496	513	
9	0	0	0	0	515	513	
10	0	0	0	0	516	510	
11	0	0	0	0	520	512	
12	0	0	0	0	524	512	
13	0	0	0	0	519	512	
14	0	0	0	0	521	512	
15	0	0	0	0	510	510	
0	0	0	0	0	507	510	
1	0	0	0	0	512	512	
2	0	0	0	0	518	512	
3	0	0	0	0	518	512	
4	0	0	0	0	531	512	
5	0	0	0	0	533	515	
6	0	0	0	0	545	513	
7	0	0	0	0	550	511	
8	0	0	0	0	551	510	
9	0	0	0	0	526	510	
10	0	0	0	0	470	511	
11	0	0	0	0	399	511	
12	0	0	0	0	391	510	
13	0	0	0	0	454	512	
14	0	0	0	0	505	512	
15	0	0	0	0	518	513	
0	0	0	0	0	520	513	
1	0	0	0	0	521	512	
2	0	0	0	0	521	511	
3	0	0	0	0	519	513	
4	0	0	0	0	510	513	
5	0	0	0	0	500	511	
6	0	0	0	0	496	508	
7	0	0	0	0	505	508	
8	0	0	0	0	512	514	
9	0	0	0	0	514	513	
10	0	0	0	0	515	511	
11	0	0	0	0	514	512	
12	0	0	0	0	508	510	
13	0	0	0	0	497	510	
14	0	0	0	0	499	512	
15	0	0	0	0	504	513	
0	0	0	0	0	505	514	
1	0	0	0	0	510	514	
2	0	0	0	0	509	512	
3	0	0	0	0	512	512	
4	0	0	0	0	514	513	
5	0	0	0	0	515	512	
6	0	0	0	0	514	510	
7	0	0	0	0	512	511	
8	0	0	0	0	505	511	
9	0	0	0	0	509	511	
10	0	0	0	0	521	508	
11	0	0	0	0	492	509	
12	0	0	0	0	470	511	
13	0	0	0	0	480	511	
14	0	0	0	0	500	513	
15	0	0	0	0	509	514	
0	0	0	0	0	496	512	
1	0	0	0	0	497	512	
2	0	0	0	0	514	512	
3	0	0	0	0	516	514	
4	0	0	0	0	517	510	
5	0	0	0	0	515	511	
6	0	0	0	0	513	509	
7	0	0	0	0	512	511	
8	0	0	0	0	511	511	
9	0	0	0	0	500	510	
10	0	0	0	0	491	510	
11	0	0	0	0	492	510	
12	0	0	0	0	513	511	
13	0	0	0	0	526	512	
14	0	0	0	0	526	512	
15	0	0	0	0	526	513	
0	0	0	0	0	526	513	
1	0	0	0	0	525	512	
2	0	0	0	0	519	511	
3	0	0	0	0	465	510	
4	0	0	0	0	430	511	
5	0	0	0	0	457	512	
6	0	0	0	0	487	510	
7	0	0	0	0	515	511	
8	0	0	0	0	511	513	
9	0	0	0	0	512	513	
10	0	0	0	0	498	511	
11	0	0	0	0	512	510	
12	0	0	0	0	511	511	
13	0	0	0	0	503	511	
14	0	0	0	0	504	511	
15	0	0	0	0	505	512	
0	0	0	0	0	510	511	
1	0	0	0	0	511	510	
2	0	0	0	0	511	511	
3	0	0	0	0	508	511	
4	0	0	0	0	511	511	
5	0	0	0	0	523	512	
6	0	0	0	0	532	514	
7	0	0	0	0	540	515	
8	0	0	0	0	543	513	
9	0	0	0	0	551	512	
10	0	0	0	0	550	512	
11	0	0	0	0	529	515	
12	0	0	0	0	484	512	
13	0	0	0	0	417	510	
14	0	0	0	0	425	512	
15	0	0	0	0	467	513	
0	0	0	0	0	462	511	
1	0	0	0	0	462	511	
2	0	0	0	0	487	513	
3	0	0	0	0	510	514	
4	0	0	0	0	498	513	
5	0	0	0	0	487	514	
6	0	0	0	0	516	514	
7	0	0	0	0	528	510	
8	0	0	0	0	521	513	
9	0	0	0	0	524	513	
10	0	0	0	0	532	512	
11	0	0	0	0	517	508	
12	0	0	0	0	516	512	
13	0	0	0	0	515	511	
14	0	0	0	0	513	513	
15	0	0	0	0	510	510	
0	0	0	0	0	507	511	
1	0	0	0	0	513	511	
2	0	0	0	0	513	512	
3	0	0	0	0	507	514	
4	0	0	0	0	504	514	
5	0	0	0	0	505	514	
6	0	0	0	0	516	513	
7	0	0	0	0	526	516	
8	0	0	0	0	518	511	
9	0	0	0	0	493	510	
10	0	0	0	0	494	511	
11	0	0	0	0	483	512	
12	0	0	0	0	471	514	
13	0	0	0	0	480	513	
14	0	0	0	0	499	510	
15	0	0	0	0	507	510	
0	0	0	0	0	511	512	
1	0	0	0	0	509	512	
2	0	0	0	0	512	511	
3	0	0	0	0	515	513	
4	0	0	0	0	508	511	
5	0	0	0	0	500	512	
6	0	0	0	0	503	510	
7	0	0	0	0	504	511	
8	0	0	0	0	505	512	
9	0	0	0	0	506	511	
10	0	0	0	0	509	513	
11	0	0	0	0	509	512	
12	0	0	0	0	507	511	
13	0	0	0	0	515	512	
14	0	0	0	0	521	511	
15	0	0	0	0	517	511	
0	0	0	0	0	516	507	
1	0	0	0	0	510	511	
2	0	0	0	0	504	509	
3	0	0	0	0	500	507	
4	0	0	0	0	513	511	
5	0	0	0	0	510	511	
6	0	0	0	0	504	508	
7	0	0	0	0	507	511	
8	0	0	0	0	513	512	
9	0	0	0	0	515	511	
10	0	0	0	0	502	511	
11	0	0	0	0	465	511	
12	0	0	0	0	454	509	
13	0	0	0	0	497	508	
14	0	0	0	0	507	510	
15	0	0	0	0	496	511	
0	0	0	0	0	508	513	
1	0	0	0	0	521	512	
2	0	0	0	0	521	513	
3	0	0	0	0	524	513	
4	0	0	0	0	521	514	
5	0	0	0	0	488	512	
6	0	0	0	0	489	510	
7	0	0	0	0	511	511	
8	0	0	0	0	502	509	
9	0	0	0	0	486	508	
10	0	0	0	0	484	510	
11	0	0	0	0	497	512	
12	0	0	0	0	511	512	
13	0	0	0	0	524	512	
14	0	0	0	0	536	510	
15	0	0	0	0	531	511	
0	0	0	0	0	512	514	
1	0	0	0	0	489	514	
2	0	0	0	0	456	512	
3	0	0	0	0	471	512	
4	0	0	0	0	520	509	
5	0	0	0	0	522	512	
6	0	0	0	0	500	515	
7	0	0	0	0	519	514	
8	0	0	0	0	536	510	
9	0	0	0	0	530	511	
10	0	0	0	0	518	511	
11	0	0	0	0	504	511	
12	0	0	0	0	483	511	
13	0	0	0	0	481	510	
14	0	0	0	0	487	513	
15	0	0	0	0	495	513	
0	0	0	0	0	511	513	
1	0	0	0	0	523	514	
2	0	0	0	0	519	512	
3	0	0	0	0	522	513	
4	0	0	0	0	527	513	
5	0	0	0	0	525	514	
6	0	0	0	0	521	515	
7	0	0	0	0	502	513	
8	0	0	0	0	479	514	
9	0	0	0	0	503	512	
10	0	0	0	0	507	510	
11	0	0	0	0	482	513	
12	0	0	0	0	472	512	
13	0	0	0	0	457	511	
14	0	0	0	0	473	511	
15	0	0	0	0	504	511	
0	0	0	0	0	515	513	
1	0	0	0	0	519	513	
2	0	0	0	0	516	512	
3	0	0	0	0	513	513	
4	0	0	0	0	512	512	
5	0	0	0	0	513	512	
6	0	0	0	0	515	512	
7	0	0	0	0	517	512	
8	0	0	0	0	517	510	
9	0	0	0	0	510	511	
10	0	0	0	0	516	514	
11	0	0	0	0	520	511	
12	0	0	0	0	516	512	
13	0	0	0	0	517	513	
14	0	0	0	0	519	514	
15	0	0	0	0	515	512	
0	0	0	0	0	515	513	
1	0	0	0	0	486	515	
2	0	0	0	0	440	514	
3	0	0	0	0	464	512	
4	0	0	0	0	495	515	
5	0	0	0	0	505	510	
6	0	0	0	0	508	512	
7	0	0	0	0	515	513	
8	0	0	0	0	519	512	
9	0	0	0	0	514	511	
10	0	0	0	0	513	511	
11	0	0	0	0	516	513	
12	0	0	0	0	516	511	
13	0	0	0	0	511	511	
14	0	0	0	0	512	513	
15	0	0	0	0	508	514	
0	0	0	0	0	519	513	
1	0	0	0	0	532	514	
2	0	0	0	0	534	512	
3	0	0	0	0	525	513	
4	0	0	0	0	519	512	
5	0	0	0	0	479	512	
6	0	0	0	0	420	510	
7	0	0	0	0	422	512	
8	0	0	0	0	472	513	
9	0	0	0	0	499	513	
10	0	0	0	0	510	511	
11	0	0	0	0	516	512	
12	0	0	0	0	518	511	
13	0	0	0	0	519	511	
14	0	0	0	0	515	511	
15	0	0	0	0	511	512	
0	0	0	0	0	516	513	
1	0	0	0	0	515	510	
2	0	0	0	0	512	510	
3	0	0	0	0	510	514	
4	0	0	0	0	507	512	
5	0	0	0	0	507	509	
6	0	0	0	0	514	511	
7	0	0	0	0	510	513	
8	0	0	0	0	512	512	
9	0	0	0	0	508	508	
10	0	0	0	0	511	508	
11	0	0	0	0	512	508	
12	0	0	0	0	520	510	
13	0	0	0	0	519	513	
14	0	0	0	0	520	511	
15	0	0	0	0	518	513	
0	0	0	0	0	494	515	
1	0	0	0	0	458	517	
2	0	0	0	0	450	511	
3	0	0	0	0	495	508	
4	0	0	0	0	515	510	
5	0	0	0	0	517	510	
6	0	0	0	0	513	511	
7	0	0	0	0	508	511	
8	0	0	0	0	507	510	
9	0	0	0	0	508	510	
10	0	0	0	0	509	511	
11	0	0	0	0	503	512	
12	0	0	0	0	504	511	
13	0	0	0	0	507	511	
14	0	0	0	0	506	510	
15	0	0	0	0	512	511	
0	0	0	0	0	515	511	
1	0	0	0	0	521	514	
2	0	0	0	0	525	516	
3	0	0	0	0	531	511	
4	0	0	0	0	521	509	
5	0	0	0	0	515	510	
6	0	0	0	0	487	510	
7	0	0	0	0	445	510	
8	0	0	0	0	451	511	
9	0	0	0	0	477	509	
10	0	0	0	0	508	513	
11	0	0	0	0	531	513	
12	0	0	0	0	536	509	
13	0	0	0	0	525	511	
14	0	0	0	0	499	513	
15	0	0	0	0	475	513	
0	0	0	0	0	472	513	
1	0	0	0	0	498	512	
2	0	0	0	0	516	514	
3	0	0	0	0	517	511	
4	0	0	0	0	518	512	
5	0	0	0	0	512	508	
6	0	0	0	0	511	511	
7	0	0	0	0	512	512	
8	0	0	0	0	511	514	
9	0	0	0	0	503	511	
10	0	0	0	0	504	512	
11	0	0	0	0	508	511	
12	0	0	0	0	506	514	
13	0	0	0	0	509	511	
14	0	0	0	0	512	514	
15	0	0	0	0	508	513	
0	0	0	0	0	513	514	
1	0	0	0	0	524	515	
2	0	0	0	0	532	513	
3	0	0	0	0	533	511	
4	0	0	0	0	511	510	
5	0	0	0	0	472	512	
6	0	0	0	0	480	512	
7	0	0	0	0	508	510	
8	0	0	0	0	516	509	
9	0	0	0	0	492	511	
10	0	0	0	0	444	511	
11	0	0	0	0	462	512	
12	0	0	0	0	506	512	
13	0	0	0	0	530	516	
14	0	0	0	0	534	515	
15	0	0	0	0	508	513	
0	0	0	0	0	488	513	
1	0	0	0	0	507	512	
2	0	0	0	0	513	512	
3	0	0	0	0	493	513	
4	0	0	0	0	502	514	
5	0	0	0	0	513	511	
6	0	0	0	0	517	513	
7	0	0	0	0	523	512	
8	0	0	0	0	506	512	
9	0	0	0	0	468	514	
10	0	0	0	0	487	511	
11	0	0	0	0	511	512	
12	0	0	0	0	514	510	
13	0	0	0	0	510	512	
14	0	0	0	0	504	513	
15	0	0	0	0	503	512	
0	0	0	0	0	508	512	
1	0	0	0	0	506	512	
2	0	0	0	0	507	515	
3	0	0	0	0	508	514	
4	0	0	0	0	504	514	
5	0	0	0	0	512	512	
6	0	0	0	0	512	510	
7	0	0	0	0	512	508	
8	0	0	0	0	519	509	
9	0	0	0	0	518	511	
10	0	0	0	0	515	510	
11	0	0	0	0	518	513	
12	0	0	0	0	525	512	
13	0	0	0	0	524	513	
14	0	0	0	0	511	514	
15	0	0	0	0	480	511	
0	0	0	0	0	444	512	
1	0	0	0	0	457	511	
2	0	0	0	0	494	512	
3	0	0	0	0	509	511	
4	0	0	0	0	511	511	
5	0	0	0	0	508	511	
6	0	0	0	0	515	509	
7	0	0	0	0	527	511	
8	0	0	0	0	522	511	
9	0	0	0	0	513	512	
10	0	0	0	0	508	514	
11	0	0	0	0	496	514	
12	0	0	0	0	508	515	
13	0	0	0	0	512	511	
14	0	0	0	0	504	512	
15	0	0	0	0	503	511	
0	0	0	0	0	512	509	
1	0	0	0	0	519	508	
2	0	0	0	0	519	511	
3	0	0	0	0	511	513	
4	0	0	0	0	487	513	
5	0	0	0	0	487	511	
6	0	0	0	0	476	512	
7	0	0	0	0	492	512	
8	0	0	0	0	519	511	
9	0	0	0	0	525	509	
10	0	0	0	0	504	511	
11	0	0	0	0	486	511	
12	0	0	0	0	472	512	
13	0	0	0	0	488	511	
14	0	0	0	0	501	511	
15	0	0	0	0	506	510	
0	0	0	0	0	518	511	
1	0	0	0	0	523	511	
2	0	0	0	0	534	512	
3	0	0	0	0	540	508	
4	0	0	0	0	531	510	
5	0	0	0	0	505	512	
6	0	0	0	0	483	513	
7	0	0	0	0	498	510	
8	0	0	0	0	504	513	
9	0	0	0	0	507	512	
10	0	0	0	0	489	511	
11	0	0	0	0	503	514	
12	0	0	0	0	519	512	
13	0	0	0	0	519	511	
14	0	0	0	0	517	512	
15	0	0	0	0	519	513	
0	0	0	0	0	499	512	
1	0	0	0	0	469	511	
2	0	0	0	0	490	511	
3	0	0	0	0	508	510	
4	0	0	0	0	489	511	
5	0	0	0	0	475	513	
6	0	0	0	0	479	512	
7	0	0	0	0	492	513	
8	0	0	0	0	512	511	
9	0	0	0	0	516	511	
10	0	0	0	0	515	511	
11	0	0	0	0	512	512	
12	0	0	0	0	513	511	
13	0	0	0	0	510	511	
14	0	0	0	0	510	511	
15	0	0	0	0	505	510	
0	0	0	0	0	514	512	
1	0	0	0	0	515	511	
2	0	0	0	0	515	512	
3	0	0	0	0	512	511	
4	0	0	0	0	507	512	
5	0	0	0	0	502	511	
6	0	0	0	0	500	512	
7	0	0	0	0	504	515	
8	0	0	0	0	502	513	
9	0	0	0	0	506	511	
10	0	0	0	0	508	512	
11	0	0	0	0	508	512	
12	0	0	0	0	507	511	
13	0	0	0	0	508	512	
14	0	0	0	0	506	513	
15	0	0	0	0	506	508	
0	0	0	0	0	502	512	
1	0	0	0	0	500	513	
2	0	0	0	0	503	512	
3	0	0	0	0	504	511	
4	0	0	0	0	505	515	
5	0	0	0	0	504	513	
6	0	0	0	0	503	514	
7	0	0	0	0	505	513	
8	0	0	0	0	507	513	
9	0	0	0	0	516	513	
10	0	0	0	0	512	511	
11	0	0	0	0	522	511	
12	0	0	0	0	528	510	
13	0	0	0	0	528	511	
14	0	0	0	0	519	511	
15	0	0	0	0	490	511	
0	0	0	0	0	454	511	
1	0	0	0	0	440	513	
2	0	0	0	0	482	513	
3	0	0	0	0	510	510	
4	0	0	0	0	520	512	
5	0	0	0	0	524	510	
6	0	0	0	0	537	511	
7	0	0	0	0	536	512	
8	0	0	0	0	527	511	
9	0	0	0	0	509	517	
10	0	0	0	0	495	515	
11	0	0	0	0	502	512	
12	0	0	0	0	515	510	
13	0	0	0	0	477	508	
14	0	0	0	0	446	510	
15	0	0	0	0	470	509	
0	0	0	0	0	480	511	
1	0	0	0	0	503	511	
2	0	0	0	0	519	513	
3	0	0	0	0	531	514	
4	0	0	0	0	538	514	
5	0	0	0	0	534	511	
6	0	0	0	0	517	514	
7	0	0	0	0	495	513	
8	0	0	0	0	486	511	
9	0	0	0	0	502	513	
10	0	0	0	0	515	513	
11	0	0	0	0	527	512	
12	0	0	0	0	529	511	
13	0	0	0	0	510	511	
14	0	0	0	0	467	511	
15	0	0	0	0	468	512	
0	0	0	0	0	474	513	
1	0	0	0	0	497	512	
2	0	0	0	0	521	512	
3	0	0	0	0	528	513	
4	0	0	0	0	527	510	
5	0	0	0	0	517	511	
6	0	0	0	0	506	511	
7	0	0	0	0	498	512	
8	0	0	0	0	487	512	
9	0	0	0	0	460	512	
10	0	0	0	0	482	511	
11	0	0	0	0	512	512	
12	0	0	0	0	519	511	
13	0	0	0	0	519	512	
14	0	0	0	0	517	512	
15	0	0	0	0	516	512	
0	0	0	0	0	516	512	
1	0	0	0	0	508	512	
2	0	0	0	0	488	513	
3	0	0	0	0	500	512	
4	0	0	0	0	511	511	
5	0	0	0	0	510	512	
6	0	0	0	0	504	514	
7	0	0	0	0	503	511	
8	0	0	0	0	509	514	
9	0	0	0	0	510	514	
10	0	0	0	0	516	513	
11	0	0	0	0	514	510	
12	0	0	0	0	511	510	
13	0	0	0	0	511	510	
14	0	0	0	0	505	510	
15	0	0	0	0	499	512	
0	0	0	0	0	506	512	
1	0	0	0	0	505	512	
2	0	0	0	0	507	513	
3	0	0	0	0	504	511	
4	0	0	0	0	503	509	
5	0	0	0	0	499	512	
6	0	0	0	0	504	508	
7	0	0	0	0	505	509	
8	0	0	0	0	504	511	
9	0	0	0	0	501	513	
10	0	0	0	0	506	510	
11	0	0	0	0	508	513	
12	0	0	0	0	510	513	
13	0	0	0	0	508	511	
14	0	0	0	0	508	511	
15	0	0	0	0	511	513	
0	0	0	0	0	505	513	
1	0	0	0	0	507	512	
2	0	0	0	0	510	513	
3	0	0	0	0	509	511	
4	0	0	0	0	510	510	
5	0	0	0	0	502	515	
6	0	0	0	0	504	513	
7	0	0	0	0	501	512	
8	0	0	0	0	495	512	
9	0	0	0	0	494	509	
10	0	0	0	0	506	511	
11	0	0	0	0	521	512	
12	0	0	0	0	521	513	
13	0	0	0	0	527	512	
14	0	0	0	0	527	511	
15	0	0	0	0	526	514	
0	0	0	0	0	508	513	
1	0	0	0	0	467	512	
2	0	0	0	0	436	511	
3	0	0	0	0	451	512	
4	0	0	0	0	493	512	
5	0	0	0	0	507	511	
6	0	0	0	0	511	515	
7	0	0	0	0	512	514	
8	0	0	0	0	510	512	
9	0	0	0	0	512	511	
10	0	0	0	0	512	512	
11	0	0	0	0	513	511	
12	0	0	0	0	515	511	
13	0	0	0	0	516	511	
14	0	0	0	0	509	515	
15	0	0	0	0	510	511	
0	0	0	0	0	510	511	
1	0	0	0	0	513	511	
2	0	0	0	0	507	511	
3	0	0	0	0	502	512	
4	0	0	0	0	503	510	
5	0	0	0	0	505	513	
6	0	0	0	0	505	511	
7	0	0	0	0	502	513	
8	0	0	0	0	508	515	
9	0	0	0	0	504	515	
10	0	0	0	0	498	514	
11	0	0	0	0	505	513	
12	0	0	0	0	505	511	
13	0	0	0	0	504	511	
14	0	0	0	0	506	511	
15	0	0	0	0	509	511	
0	0	0	0	0	521	512	
1	0	0	0	0	539	511	
2	0	0	0	0	537	513	
3	0	0	0	0	528	512	
4	0	0	0	0	514	508	
5	0	0	0	0	505	512	
6	0	0	0	0	503	512	
7	0	0	0	0	499	514	
8	0	0	0	0	471	513	
9	0	0	0	0	459	512	
10	0	0	0	0	483	510	
11	0	0	0	0	497	509	
12	0	0	0	0	480	511	
13	0	0	0	0	476	512	
14	0	0	0	0	517	512	
15	0	0	0	0	528	513	
0	0	0	0	0	519	512	
1	0	0	0	0	496	514	
2	0	0	0	0	492	513	
3	0	0	0	0	495	513	
4	0	0	0	0	487	511	
5	0	0	0	0	495	512	
6	0	0	0	0	510	511	
7	0	0	0	0	515	511	
8	0	0	0	0	519	514	
9	0	0	0	0	516	512	
10	0	0	0	0	510	512	
11	0	0	0	0	511	511	
12	0	0	0	0	515	511	
13	0	0	0	0	522	513	
14	0	0	0	0	526	513	
15	0	0	0	0	534	513	
0	0	0	0	0	534	513	
1	0	0	0	0	502	512	
2	0	0	0	0	474	512	
3	0	0	0	0	472	511	
4	0	0	0	0	495	513	
5	0	0	0	0	510	510	
6	0	0	0	0	509	510	
7	0	0	0	0	508	510	
8	0	0	0	0	511	508	
9	0	0	0	0	504	510	
10	0	0	0	0	500	512	
11	0	0	0	0	504	510	
12	0	0	0	0	504	510	
13	0	0	0	0	496	510	
14	0	0	0	0	502	511	
15	0	0	0	0	505	511	
0	0	0	0	0	507	511	
1	0	0	0	0	507	510	
2	0	0	0	0	505	510	
3	0	0	0	0	505	512	
4	0	0	0	0	507	510	
5	0	0	0	0	510	510	
6	0	0	0	0	506	512	
7	0	0	0	0	504	514	
8	0	0	0	0	505	511	
9	0	0	0	0	509	512	
10	0	0	0	0	505	512	
11	0	0	0	0	504	511	
12	0	0	0	0	507	511	
13	0	0	0	0	506	511	
14	0	0	0	0	507	511	
15	0	0	0	0	505	512	
0	0	0	0	0	505	513	
1	0	0	0	0	508	512	
2	0	0	0	0	512	511	
3	0	0	0	0	510	515	
4	0	0	0	0	512	515	
5	0	0	0	0	516	513	
6	0	0	0	0	520	513	
7	0	0	0	0	524	510	
8	0	0	0	0	519	509	
9	0	0	0	0	494	511	
10	0	0	0	0	457	512	
11	0	0	0	0	454	511	
12	0	0	0	0	493	514	
13	0	0	0	0	508	512	
14	0	0	0	0	509	513	
15	0	0	0	0	510	514	
0	0	0	0	0	508	512	
1	0	0	0	0	512	512	
2	0	0	0	0	514	512	
3	0	0	0	0	520	513	
4	0	0	0	0	527	511	
5	0	0	0	0	528	510	
6	0	0	0	0	516	514	
7	0	0	0	0	503	511	
8	0	0	0	0	495	519	
9	0	0	0	0	505	512	
10	0	0	0	0	517	513	
11	0	0	0	0	505	514	
12	0	0	0	0	491	513	
13	0	0	0	0	503	513	
14	0	0	0	0	492	512	
15	0	0	0	0	471	509	
0	0	0	0	0	499	511	
1	0	0	0	0	492	512	
2	0	0	0	0	475	513	
3	0	0	0	0	503	512	
4	0	0	0	0	517	510	
5	0	0	0	0	515	512	
6	0	0	0	0	512	511	
7	0	0	0	0	495	512	
8	0	0	0	0	490	509	
9	0	0	0	0	504	511	
10	0	0	0	0	512	511	
11	0	0	0	0	516	513	
12	0	0	0	0	513	512	
13	0	0	0	0	515	511	
14	0	0	0	0	512	512	
15	0	0	0	0	508	512	
0	0	0	0	0	508	511	
1	0	0	0	0	512	513	
2	0	0	0	0	508	513	
3	0	0	0	0	505	512	
4	0	0	0	0	511	516	
5	0	0	0	0	512	513	
6	0	0	0	0	514	511	
7	0	0	0	0	516	512	
8	0	0	0	0	517	512	
9	0	0	0	0	515	514	
10	0	0	0	0	511	514	
11	0	0	0	0	503	516	
12	0	0	0	0	504	513	
13	0	0	0	0	479	508	
14	0	0	0	0	478	508	
15	0	0	0	0	488	510	
0	0	0	0	0	496	511	
1	0	0	0	0	502	512	
2	0	0	0	0	505	512	
3	0	0	0	0	506	511	
4	0	0	0	0	508	511	
5	0	0	0	0	512	510	
6	0	0	0	0	508	510	
7	0	0	0	0	505	510	
8	0	0	0	0	504	514	
9	0	0	0	0	512	512	
10	0	0	0	0	513	513	
11	0	0	0	0	509	512	
12	0	0	0	0	513	509	
13	0	0	0	0	511	508	
14	0	0	0	0	512	509	
15	0	0	0	0	511	512	
0	0	0	0	0	506	511	
1	0	0	0	0	505	512	
2	0	0	0	0	500	515	
3	0	0	0	0	500	514	
4	0	0	0	0	502	512	
5	0	0	0	0	505	510	
6	0	0	0	0	507	509	
7	0	0	0	0	505	510	
8	0	0	0	0	507	512	
9	0	0	0	0	508	511	
10	0	0	0	0	514	511	
11	0	0	0	0	525	513	
12	0	0	0	0	537	511	
13	0	0	0	0	539	510	
14	0	0	0	0	521	511	
15	0	0	0	0	473	511	
0	0	0	0	0	441	511	
1	0	0	0	0	472	509	
2	0	0	0	0	489	512	
3	0	0	0	0	487	513	
4	0	0	0	0	475	511	
5	0	0	0	0	489	511	
6	0	0	0	0	510	513	
7	0	0	0	0	515	510	
8	0	0	0	0	517	512	
9	0	0	0	0	518	509	
10	0	0	0	0	522	510	
11	0	0	0	0	518	514	
12	0	0	0	0	519	511	
13	0	0	0	0	518	512	
14	0	0	0	0	516	512	
15	0	0	0	0	511	509	
0	0	0	0	0	503	511	
1	0	0	0	0	484	510	
2	0	0	0	0	480	512	
3	0	0	0	0	495	512	
4	0	0	0	0	509	511	
5	0	0	0	0	511	511	
6	0	0	0	0	509	512	
7	0	0	0	0	509	512	
8	0	0	0	0	508	513	
9	0	0	0	0	511	511	
10	0	0	0	0	505	512	
11	0	0	0	0	504	511	
12	0	0	0	0	510	514	
13	0	0	0	0	511	512	
14	0	0	0	0	506	512	
15	0	0	0	0	504	512	
0	0	0	0	0	508	511	
1	0	0	0	0	508	512	
2	0	0	0	0	512	513	
3	0	0	0	0	512	512	
4	0	0	0	0	506	514	
5	0	0	0	0	505	513	
6	0	0	0	0	508	510	
7	0	0	0	0	506	512	
8	0	0	0	0	498	512	
9	0	0	0	0	485	511	
10	0	0	0	0	498	515	
11	0	0	0	0	505	512	
12	0	0	0	0	506	511	
13	0	0	0	0	506	509	
14	0	0	0	0	515	512	
15	0	0	0	0	524	512	
0	0	0	0	0	525	513	
1	0	0	0	0	521	513	
2	0	0	0	0	530	513	
3	0	0	0	0	537	511	
4	0	0	0	0	540	513	
5	0	0	0	0	528	512	
6	0	0	0	0	466	511	
7	0	0	0	0	424	511	
8	0	0	0	0	436	512	
9	0	0	0	0	467	512	
10	0	0	0	0	466	511	
11	0	0	0	0	487	513	
12	0	0	0	0	507	513	
13	0	0	0	0	506	515	
14	0	0	0	0	510	513	
15	0	0	0	0	515	512	
0	0	0	0	0	521	513	
1	0	0	0	0	529	513	
2	0	0	0	0	522	512	
3	0	0	0	0	508	512	
4	0	0	0	0	517	514	
5	0	0	0	0	513	513	
6	0	0	0	0	514	508	
7	0	0	0	0	515	511	
8	0	0	0	0	507	512	
9	0	0	0	0	499	512	
10	0	0	0	0	499	512	
11	0	0	0	0	508	512	
12	0	0	0	0	504	513	
13	0	0	0	0	504	512	
14	0	0	0	0	510	511	
15	0	0	0	0	509	510	
0	0	0	0	0	510	511	
1	0	0	0	0	511	511	
2	0	0	0	0	512	513	
3	0	0	0	0	507	515	
4	0	0	0	0	518	515	
5	0	0	0	0	529	511	
6	0	0	0	0	532	511	
7	0	0	0	0	536	510	
8	0	0	0	0	539	510	
9	0	0	0	0	510	512	
10	0	0	0	0	460	515	
11	0	0	0	0	420	515	
12	0	0	0	0	451	513	
13	0	0	0	0	489	511	
14	0	0	0	0	502	510	
15	0	0	0	0	511	512	
0	0	0	0	0	512	512	
1	0	0	0	0	512	512	
2	0	0	0	0	511	510	
3	0	0	0	0	511	510	
4	0	0	0	0	505	511	
5	0	0	0	0	505	511	
6	0	0	0	0	507	510	
7	0	0	0	0	510	510	
8	0	0	0	0	509	514	
9	0	0	0	0	510	513	
10	0	0	0	0	512	510	
11	0	0	0	0	511	511	
12	0	0	0	0	504	509	
13	0	0	0	0	508	512	
14	0	0	0	0	508	509	
15	0	0	0	0	508	511	
0	0	0	0	0	505	511	
1	0	0	0	0	502	512	
2	0	0	0	0	503	513	
3	0	0	0	0	503	510	
4	0	0	0	0	507	512	
5	0	0	0	0	508	510	
6	0	0	0	0	507	511	
7	0	0	0	0	505	511	
8	0	0	0	0	508	512	
9	0	0	0	0	507	512	
10	0	0	0	0	503	512	
11	0	0	0	0	504	512	
12	0	0	0	0	504	513	
13	0	0	0	0	509	515	
14	0	0	0	0	512	512	
15	0	0	0	0	508	511	
0	0	0	0	0	505	511	
1	0	0	0	0	507	512	
2	0	0	0	0	508	512	
3	0	0	0	0	508	513	
4	0	0	0	0	507	515	
5	0	0	0	0	505	513	
6	0	0	0	0	504	513	
7	0	0	0	0	526	513	
8	0	0	0	0	535	513	
9	0	0	0	0	534	512	
10	0	0	0	0	527	510	
11	0	0	0	0	533	514	
12	0	0	0	0	524	512	
13	0	0	0	0	468	513	
14	0	0	0	0	383	515	
15	0	0	0	0	385	509	
0	0	0	0	0	453	509	
1	0	0	0	0	508	511	
2	0	0	0	0	521	513	
3	0	0	0	0	526	511	
4	0	0	0	0	526	511	
5	0	0	0	0	526	513	
6	0	0	0	0	521	515	
7	0	0	0	0	515	512	
8	0	0	0	0	510	513	
9	0	0	0	0	508	514	
10	0	0	0	0	512	515	
11	0	0	0	0	516	514	
12	0	0	0	0	513	513	
13	0	0	0	0	524	512	
14	0	0	0	0	541	512	
15	0	0	0	0	550	514	
0	0	0	0	0	528	512	
1	0	0	0	0	487	513	
2	0	0	0	0	449	513	
3	0	0	0	0	448	511	
4	0	0	0	0	484	513	
5	0	0	0	0	512	508	
6	0	0	0	0	519	511	
7	0	0	0	0	518	512	
8	0	0	0	0	527	513	
9	0	0	0	0	527	511	
10	0	0	0	0	520	510	
11	0	0	0	0	507	512	
12	0	0	0	0	492	511	
13	0	0	0	0	472	512	
14	0	0	0	0	481	512	
15	0	0	0	0	502	510	
0	0	0	0	0	517	512	
1	0	0	0	0	519	512	
2	0	0	0	0	519	511	
3	0	0	0	0	515	510	
4	0	0	0	0	499	512	
5	0	0	0	0	483	512	
6	0	0	0	0	481	515	
7	0	0	0	0	481	513	
8	0	0	0	0	494	512	
9	0	0	0	0	511	511	
10	0	0	0	0	527	515	
11	0	0	0	0	526	514	
12	0	0	0	0	532	512	
13	0	0	0	0	544	510	
14	0	0	0	0	537	508	
15	0	0	0	0	508	508	
0	0	0	0	0	471	508	
1	0	0	0	0	466	508	
2	0	0	0	0	487	511	
3	0	0	0	0	497	510	
4	0	0	0	0	502	509	
5	0	0	0	0	507	512	
6	0	0	0	0	506	512	
7	0	0	0	0	507	513	
8	0	0	0	0	507	511	
9	0	0	0	0	508	510	
10	0	0	0	0	511	513	
11	0	0	0	0	512	511	
12	0	0	0	0	505	511	
13	0	0	0	0	507	512	
14	0	0	0	0	506	512	
15	0	0	0	0	503	510	
0	0	0	0	0	506	511	
1	0	0	0	0	512	512	
2	0	0	0	0	512	512	
3	0	0	0	0	514	510	
4	0	0	0	0	520	511	
5	0	0	0	0	523	511	
6	0	0	0	0	510	512	
7	0	0	0	0	513	512	
8	0	0	0	0	505	511	
9	0	0	0	0	467	513	
10	0	0	0	0	475	512	
11	0	0	0	0	496	512	
12	0	0	0	0	501	511	
13	0	0	0	0	508	512	
14	0	0	0	0	511	511	
15	0	0	0	0	509	510	
0	0	0	0	0	497	512	
1	0	0	0	0	497	512	
2	0	0	0	0	508	512	
3	0	0	0	0	512	513	
4	0	0	0	0	511	513	
5	0	0	0	0	510	512	
6	0	0	0	0	506	512	
7	0	0	0	0	494	513	
8	0	0	0	0	487	512	
9	0	0	0	0	504	512	
10	0	0	0	0	513	512	
11	0	0	0	0	528	512	
12	0	0	0	0	529	511	
13	0	0	0	0	521	511	
14	0	0	0	0	519	511	
15	0	0	0	0	522	513	
0	0	0	0	0	519	511	
1	0	0	0	0	508	511	
2	0	0	0	0	479	511	
3	0	0	0	0	444	511	
4	0	0	0	0	455	512	
5	0	0	0	0	494	511	
6	0	0	0	0	505	512	
7	0	0	0	0	505	510	
8	0	0	0	0	511	511	
9	0	0	0	0	515	511	
10	0	0	0	0	514	511	
11	0	0	0	0	511	510	
12	0	0	0	0	507	513	
13	0	0	0	0	507	511	
14	0	0	0	0	510	511	
15	0	0	0	0	513	511	
0	0	0	0	0	512	512	
1	0	0	0	0	511	514	
2	0	0	0	0	518	514	
3	0	0	0	0	521	514	
4	0	0	0	0	524	514	
5	0	0	0	0	531	512	
6	0	0	0	0	540	512	
7	0	0	0	0	538	514	
8	0	0	0	0	512	514	
9	0	0	0	0	463	513	
10	0	0	0	0	404	516	
11	0	0	0	0	435	513	
12	0	0	0	0	489	515	
13	0	0	0	0	511	512	
14	0	0	0	0	517	511	
15	0	0	0	0	519	510	
0	0	0	0	0	515	509	
1	0	0	0	0	513	510	
2	0	0	0	0	511	511	
3	0	0	0	0	508	510	
4	0	0	0	0	509	510	
5	0	0	0	0	508	512	
6	0	0	0	0	514	514	
7	0	0	0	0	511	512	
8	0	0	0	0	504	510	
9	0	0	0	0	505	513	
10	0	0	0	0	510	513	
11	0	0	0	0	516	513	
12	0	0	0	0	513	511	
13	0	0	0	0	512	510	
14	0	0	0	0	510	512	
15	0	0	0	0	505	515	
0	0	0	0	0	501	511	
1	0	0	0	0	498	513	
2	0	0	0	0	493	511	
3	0	0	0	0	493	511	
4	0	0	0	0	508	515	
5	0	0	0	0	521	515	
6	0	0	0	0	528	515	
7	0	0	0	0	538	516	
8	0	0	0	0	540	513	
9	0	0	0	0	534	509	
10	0	0	0	0	521	509	
11	0	0	0	0	488	511	
12	0	0	0	0	439	510	
13	0	0	0	0	419	511	
14	0	0	0	0	463	511	
15	0	0	0	0	497	509	
0	0	0	0	0	511	509	
1	0	0	0	0	511	511	
2	0	0	0	0	512	513	
3	0	0	0	0	512	512	
4	0	0	0	0	512	510	
5	0	0	0	0	509	510	
6	0	0	0	0	508	511	
7	0	0	0	0	507	510	
8	0	0	0	0	513	511	
9	0	0	0	0	516	512	
10	0	0	0	0	520	512	
11	0	0	0	0	517	511	
12	0	0	0	0	521	512	
13	0	0	0	0	519	512	
14	0	0	0	0	516	511	
15	0	0	0	0	515	510	
0	0	0	0	0	508	512	
1	0	0	0	0	485	510	
2	0	0	0	0	468	512	
3	0	0	0	0	491	516	
4	0	0	0	0	483	514	
5	0	0	0	0	499	511	
6	0	0	0	0	513	513	
7	0	0	0	0	507	512	
8	0	0	0	0	505	512	
9	0	0	0	0	512	511	
10	0	0	0	0	511	510	
11	0	0	0	0	515	511	
12	0	0	0	0	512	510	
13	0	0	0	0	508	510	
14	0	0	0	0	502	512	
15	0	0	0	0	503	514	
0	0	0	0	0	505	513	
1	0	0	0	0	511	512	
2	0	0	0	0	532	512	
3	0	0	0	0	531	511	
4	0	0	0	0	521	512	
5	0	0	0	0	519	512	
6	0	0	0	0	511	513	
7	0	0	0	0	505	514	
8	0	0	0	0	505	512	
9	0	0	0	0	483	511	
10	0	0	0	0	431	511	
11	0	0	0	0	457	513	
12	0	0	0	0	497	514	
13	0	0	0	0	504	513	
14	0	0	0	0	513	511	
15	0	0	0	0	517	511	
0	0	0	0	0	515	513	
1	0	0	0	0	523	514	
2	0	0	0	0	524	515	
3	0	0	0	0	518	512	
4	0	0	0	0	507	511	
5	0	0	0	0	490	511	
6	0	0	0	0	485	508	
7	0	0	0	0	491	511	
8	0	0	0	0	504	509	
9	0	0	0	0	511	509	
10	0	0	0	0	512	515	
11	0	0	0	0	510	513	
12	0	0	0	0	510	510	
13	0	0	0	0	508	509	
14	0	0	0	0	510	512	
15	0	0	0	0	509	514	
0	0	0	0	0	507	512	
1	0	0	0	0	508	512	
2	0	0	0	0	508	510	
3	0	0	0	0	506	512	
4	0	0	0	0	505	511	
5	0	0	0	0	505	513	
6	0	0	0	0	507	514	
7	0	0	0	0	506	513	
8	0	0	0	0	510	515	
9	0	0	0	0	510	511	
10	0	0	0	0	505	511	
11	0	0	0	0	508	512	
12	0	0	0	0	501	511	
13	0	0	0	0	496	511	
14	0	0	0	0	497	510	
15	0	0	0	0	498	512	
0	0	0	0	0	499	510	
1	0	0	0	0	500	513	
2	0	0	0	0	498	515	
3	0	0	0	0	517	512	
4	0	0	0	0	529	511	
5	0	0	0	0	522	510	
6	0	0	0	0	519	511	
7	0	0	0	0	519	511	
8	0	0	0	0	518	513	
9	0	0	0	0	524	512	
10	0	0	0	0	515	515	
11	0	0	0	0	484	510	
12	0	0	0	0	449	512	
13	0	0	0	0	472	512	
14	0	0	0	0	501	508	
15	0	0	0	0	508	511	
0	0	0	0	0	510	511	
1	0	0	0	0	511	512	
2	0	0	0	0	511	513	
3	0	0	0	0	510	511	
4	0	0	0	0	495	509	
5	0	0	0	0	503	512	
6	0	0	0	0	511	512	
7	0	0	0	0	508	513	
8	0	0	0	0	512	513	
9	0	0	0	0	518	511	
10	0	0	0	0	516	510	
11	0	0	0	0	491	508	
12	0	0	0	0	503	508	
13	0	0	0	0	513	512	
14	0	0	0	0	508	513	
15	0	0	0	0	501	511	
0	0	0	0	0	479	513	
1	0	0	0	0	490	512	
2	0	0	0	0	496	512	
3	0	0	0	0	497	512	
4	0	0	0	0	508	513	
5	0	0	0	0	512	512	
6	0	0	0	0	515	510	
7	0	0	0	0	510	511	
8	0	0	0	0	504	511	
9	0	0	0	0	505	511	
10	0	0	0	0	506	512	
11	0	0	0	0	509	513	
12	0	0	0	0	509	512	
13	0	0	0	0	505	512	
14	0	0	0	0	512	514	
15	0	0	0	0	515	511	
0	0	0	0	0	510	512	
1	0	0	0	0	507	511	
2	0	0	0	0	501	512	
3	0	0	0	0	504	511	
4	0	0	0	0	506	511	
5	0	0	0	0	509	511	
6	0	0	0	0	505	513	
7	0	0	0	0	507	513	
8	0	0	0	0	507	512	
9	0	0	0	0	510	513	
10	0	0	0	0	513	510	
11	0	0	0	0	511	515	
12	0	0	0	0	503	512	
13	0	0	0	0	501	510	
14	0	0	0	0	502	512	
15	0	0	0	0	501	510	
0	0	0	0	0	504	512	
1	0	0	0	0	504	513	
2	0	0	0	0	500	512	
3	0	0	0	0	504	513	
4	0	0	0	0	508	510	
5	0	0	0	0	505	510	
6	0	0	0	0	507	511	
7	0	0	0	0	510	511	
8	0	0	0	0	512	511	
9	0	0	0	0	513	512	
10	0	0	0	0	516	512	
11	0	0	0	0	524	511	
12	0	0	0	0	508	511	
13	0	0	0	0	494	511	
14	0	0	0	0	488	511	
15	0	0	0	0	500	511	
0	0	0	0	0	516	513	
1	0	0	0	0	526	512	
2	0	0	0	0	515	512	
3	0	0	0	0	487	513	
4	0	0	0	0	470	511	
5	0	0	0	0	497	514	
6	0	0	0	0	516	513	
7	0	0	0	0	513	513	
8	0	0	0	0	492	515	
9	0	0	0	0	459	514	
10	0	0	0	0	469	516	
11	0	0	0	0	516	512	
12	0	0	0	0	536	508	
13	0	0	0	0	532	510	
14	0	0	0	0	510	510	
15	0	0	0	0	483	512	
0	0	0	0	0	478	512	
1	0	0	0	0	493	510	
2	0	0	0	0	508	510	
3	0	0	0	0	515	512	
4	0	0	0	0	515	511	
5	0	0	0	0	512	513	
6	0	0	0	0	510	512	
7	0	0	0	0	508	514	
8	0	0	0	0	507	510	
9	0	0	0	0	506	513	
10	0	0	0	0	510	514	
11	0	0	0	0	515	512	
12	0	0	0	0	515	513	
13	0	0	0	0	514	511	
14	0	0	0	0	509	512	
15	0	0	0	0	504	512	
0	0	0	0	0	507	511	
1	0	0	0	0	508	513	
2	0	0	0	0	511	514	
3	0	0	0	0	511	512	
4	0	0	0	0	500	512	
5	0	0	0	0	481	515	
6	0	0	0	0	491	512	
7	0	0	0	0	501	513	
8	0	0	0	0	509	513	
9	0	0	0	0	509	511	
10	0	0	0	0	509	511	
11	0	0	0	0	509	512	
12	0	0	0	0	515	512	
13	0	0	0	0	519	511	
14	0	0	0	0	496	511	
15	0	0	0	0	506	510	
0	0	0	0	0	512	511	
1	0	0	0	0	510	512	
2	0	0	0	0	508	511	
3	0	0	0	0	498	510	
4	0	0	0	0	472	511	
5	0	0	0	0	484	510	
6	0	0	0	0	500	510	
7	0	0	0	0	508	510	
8	0	0	0	0	512	511	
9	0	0	0	0	518	510	
10	0	0	0	0	520	511	
11	0	0	0	0	516	512	
12	0	0	0	0	518	514	
13	0	0	0	0	524	515	
14	0	0	0	0	531	515	
15	0	0	0	0	521	513	
0	0	0	0	0	492	511	
1	0	0	0	0	451	510	
2	0	0	0	0	449	512	
3	0	0	0	0	488	511	
4	0	0	0	0	509	512	
5	0	0	0	0	510	513	
6	0	0	0	0	508	512	
7	0	0	0	0	509	511	
8	0	0	0	0	510	511	
9	0	0	0	0	513	512	
10	0	0	0	0	515	513	
11	0	0	0	0	510	513	
12	0	0	0	0	505	513	
13	0	0	0	0	506	512	
14	0	0	0	0	512	511	
15	0	0	0	0	504	513	
0	0	0	0	0	502	515	
1	0	0	0	0	511	513	
2	0	0	0	0	513	514	
3	0	0	0	0	511	513	
4	0	0	0	0	512	509	
5	0	0	0	0	520	510	
6	0	0	0	0	524	511	
7	0	0	0	0	521	510	
8	0	0	0	0	507	511	
9	0	0	0	0	483	512	
10	0	0	0	0	470	510	
11	0	0	0	0	471	512	
12	0	0	0	0	483	512	
13	0	0	0	0	504	511	
14	0	0	0	0	508	513	
15	0	0	0	0	508	511	
0	0	0	0	0	514	512	
1	0	0	0	0	520	510	
2	0	0	0	0	516	510	
3	0	0	0	0	510	511	
4	0	0	0	0	504	511	
5	0	0	0	0	503	512	
6	0	0	0	0	505	511	
7	0	0	0	0	507	511	
8	0	0	0	0	501	512	
9	0	0	0	0	499	511	
10	0	0	0	0	504	512	
11	0	0	0	0	508	511	
12	0	0	0	0	511	513	
13	0	0	0	0	509	513	
14	0	0	0	0	510	511	
15	0	0	0	0	510	513	
0	0	0	0	0	506	512	
1	0	0	0	0	503	512	
2	0	0	0	0	504	511	
3	0	0	0	0	507	512	
4	0	0	0	0	510	510	
5	0	0	0	0	510	511	
6	0	0	0	0	512	511	
7	0	0	0	0	514	512	
8	0	0	0	0	511	510	
9	0	0	0	0	507	511	
10	0	0	0	0	506	512	
11	0	0	0	0	499	511	
12	0	0	0	0	487	513	
13	0	0	0	0	464	514	
14	0	0	0	0	487	512	
15	0	0	0	0	508	511	
0	0	0	0	0	516	511	
1	0	0	0	0	517	509	
2	0	0	0	0	515	509	
3	0	0	0	0	512	511	
4	0	0	0	0	500	511	
5	0	0	0	0	504	512	
6	0	0	0	0	504	514	
7	0	0	0	0	504	513	
8	0	0	0	0	505	511	
9	0	0	0	0	507	510	
10	0	0	0	0	509	513	
11	0	0	0	0	510	514	
12	0	0	0	0	508	513	
13	0	0	0	0	507	514	
14	0	0	0	0	509	512	
15	0	0	0	0	508	513	
0	0	0	0	0	505	512	
1	0	0	0	0	513	513	
2	0	0	0	0	515	511	
3	0	0	0	0	511	510	
4	0	0	0	0	512	511	
5	0	0	0	0	509	508	
6	0	0	0	0	515	513	
7	0	0	0	0	517	514	
8	0	0	0	0	510	512	
9	0	0	0	0	497	511	
10	0	0	0	0	475	513	
11	0	0	0	0	480	511	
12	0	0	0	0	504	514	
13	0	0	0	0	517	515	
14	0	0	0	0	494	512	
15	0	0	0	0	463	512	
0	0	0	0	0	474	510	
1	0	0	0	0	504	509	
2	0	0	0	0	508	508	
3	0	0	0	0	513	510	
4	0	0	0	0	510	513	
5	0	0	0	0	512	516	
6	0	0	0	0	518	512	
7	0	0	0	0	521	511	
8	0	0	0	0	519	509	
9	0	0	0	0	516	511	
10	0	0	0	0	514	513	
11	0	0	0	0	510	511	
12	0	0	0	0	505	511	
13	0	0	0	0	478	513	
14	0	0	0	0	492	513	
15	0	0	0	0	507	509	
0	0	0	0	0	511	512	
1	0	0	0	0	504	510	
2	0	0	0	0	497	513	
3	0	0	0	0	500	513	
4	0	0	0	0	509	514	
5	0	0	0	0	512	510	
6	0	0	0	0	514	509	
7	0	0	0	0	519	512	
8	0	0	0	0	523	512	
9	0	0	0	0	521	511	
10	0	0	0	0	506	510	
11	0	0	0	0	486	513	
12	0	0	0	0	475	511	
13	0	0	0	0	479	511	
14	0	0	0	0	500	512	
15	0	0	0	0	511	512	
0	0	0	0	0	514	511	
1	0	0	0	0	513	513	
2	0	0	0	0	507	512	
3	0	0	0	0	506	513	
4	0	0	0	0	508	512	
5	0	0	0	0	504	512	
6	0	0	0	0	504	513	
7	0	0	0	0	508	513	
8	0	0	0	0	507	513	
9	0	0	0	0	509	513	
10	0	0	0	0	510	511	
11	0	0	0	0	508	510	
12	0	0	0	0	511	510	
13	0	0	0	0	499	510	
14	0	0	0	0	504	513	
15	0	0	0	0	502	513	
0	0	0	0	0	504	511	
1	0	0	0	0	506	512	
2	0	0	0	0	508	514	
3	0	0	0	0	508	513	
4	0	0	0	0	505	512	
5	0	0	0	0	507	512	
6	0	0	0	0	505	512	
7	0	0	0	0	504	513	
8	0	0	0	0	502	515	
9	0	0	0	0	504	512	
10	0	0	0	0	507	512	
11	0	0	0	0	508	512	
12	0	0	0	0	504	512	
13	0	0	0	0	504	512	
14	0	0	0	0	508	512	
15	0	0	0	0	511	512	
0	0	0	0	0	511	514	
1	0	0	0	0	504	513	
2	0	0	0	0	504	513	
3	0	0	0	0	511	512	
4	0	0	0	0	510	514	
5	0	0	0	0	511	515	
6	0	0	0	0	508	513	
7	0	0	0	0	506	513	
8	0	0	0	0	510	513	
9	0	0	0	0	508	510	
10	0	0	0	0	494	511	
11	0	0	0	0	475	510	
12	0	0	0	0	492	511	
13	0	0	0	0	507	512	
14	0	0	0	0	508	512	
15	0	0	0	0	508	511	
0	0	0	0	0	504	511	
1	0	0	0	0	505	513	
2	0	0	0	0	505	513	
3	0	0	0	0	505	511	
4	0	0	0	0	508	513	
5	0	0	0	0	503	511	
6	0	0	0	0	507	511	
7	0	0	0	0	519	510	
8	0	0	0	0	520	509	
9	0	0	0	0	513	510	
10	0	0	0	0	511	512	
11	0	0	0	0	510	512	
12	0	0	0	0	510	508	
13	0	0	0	0	505	511	
14	0	0	0	0	495	511	
15	0	0	0	0	487	511	
0	0	0	0	0	487	509	
1	0	0	0	0	516	511	
2	0	0	0	0	534	514	
3	0	0	0	0	547	515	
4	0	0	0	0	546	515	
5	0	0	0	0	547	513	
6	0	0	0	0	533	508	
7	0	0	0	0	502	509	
8	0	0	0	0	454	511	
9	0	0	0	0	415	511	
10	0	0	0	0	439	512	
11	0	0	0	0	461	513	
12	0	0	0	0	499	511	
13	0	0	0	0	498	514	
14	0	0	0	0	476	513	
15	0	0	0	0	484	512	
0	0	0	0	0	512	512	
1	0	0	0	0	520	512	
2	0	0	0	0	521	510	
3	0	0	0	0	522	511	
4	0	0	0	0	521	513	
5	0	0	0	0	518	512	
6	0	0	0	0	519	513	
7	0	0	0	0	523	511	
8	0	0	0	0	524	512	
9	0	0	0	0	521	511	
10	0	0	0	0	502	513	
11	0	0	0	0	491	514	
12	0	0	0	0	491	512	
13	0	0	0	0	498	512	
14	0	0	0	0	509	512	
15	0	0	0	0	508	512	
0	0	0	0	0	508	510	
1	0	0	0	0	507	510	
2	0	0	0	0	505	509	
3	0	0	0	0	507	511	
4	0	0	0	0	511	515	
5	0	0	0	0	507	512	
6	0	0	0	0	509	512	
7	0	0	0	0	509	510	
8	0	0	0	0	509	511	
9	0	0	0	0	507	511	
10	0	0	0	0	507	511	
11	0	0	0	0	508	511	
12	0	0	0	0	507	510	
13	0	0	0	0	505	511	
14	0	0	0	0	505	511	
15	0	0	0	0	503	512	
0	0	0	0	0	504	512	
1	0	0	0	0	505	510	
2	0	0	0	0	506	511	
3	0	0	0	0	503	513	
4	0	0	0	0	499	512	
5	0	0	0	0	504	512	
6	0	0	0	0	508	512	
7	0	0	0	0	506	511	
8	0	0	0	0	508	510	
9	0	0	0	0	505	513	
10	0	0	0	0	504	514	
11	0	0	0	0	507	512	
12	0	0	0	0	508	512	
13	0	0	0	0	506	510	
14	0	0	0	0	505	511	
15	0	0	0	0	505	511	
0	0	0	0	0	504	510	
1	0	0	0	0	505	512	
2	0	0	0	0	504	512	
3	0	0	0	0	506	513	
4	0	0	0	0	505	514	
5	0	0	0	0	505	513	
6	0	0	0	0	508	511	
7	0	0	0	0	504	513	
8	0	0	0	0	504	512	
9	0	0	0	0	503	512	
10	0	0	0	0	503	511	
11	0	0	0	0	505	512	
12	0	0	0	0	508	513	
13	0	0	0	0	506	512	
14	0	0	0	0	505	514	
15	0	0	0	0	503	513	
0	0	0	0	0	499	512	
1	0	0	0	0	504	513	
2	0	0	0	0	503	513	
3	0	0	0	0	506	512	
4	0	0	0	0	511	511	
5	0	0	0	0	514	511	
6	0	0	0	0	510	513	
7	0	0	0	0	503	512	
8	0	0	0	0	504	512	
9	0	0	0	0	506	511	
10	0	0	0	0	508	509	
11	0	0	0	0	504	511	
12	0	0	0	0	504	513	
13	0	0	0	0	507	512	
14	0	0	0	0	511	511	
15	0	0	0	0	512	511	
0	0	0	0	0	508	512	
1	0	0	0	0	503	513	
2	0	0	0	0	502	511	
3	0	0	0	0	499	511	
4	0	0	0	0	501	510	
5	0	0	0	0	509	512	
6	0	0	0	0	513	511	
7	0	0	0	0	518	514	
8	0	0	0	0	516	513	
9	0	0	0	0	510	512	
10	0	0	0	0	512	512	
11	0	0	0	0	513	513	
12	0	0	0	0	506	513	
13	0	0	0	0	482	512	
14	0	0	0	0	467	512	
15	0	0	0	0	460	511	
0	0	0	0	0	487	512	
1	0	0	0	0	508	513	
2	0	0	0	0	509	512	
3	0	0	0	0	502	512	
4	0	0	0	0	503	513	
5	0	0	0	0	515	511	
6	0	0	0	0	512	513	
7	0	0	0	0	519	511	
8	0	0	0	0	527	511	
9	0	0	0	0	527	511	
10	0	0	0	0	528	510	
11	0	0	0	0	519	509	
12	0	0	0	0	504	512	
13	0	0	0	0	478	511	
14	0	0	0	0	481	510	
15	0	0	0	0	496	511	
0	0	0	0	0	510	513	
1	0	0	0	0	514	512	
2	0	0	0	0	515	510	
3	0	0	0	0	508	515	
4	0	0	0	0	498	513	
5	0	0	0	0	494	513	
6	0	0	0	0	495	512	
7	0	0	0	0	505	511	
8	0	0	0	0	508	512	
9	0	0	0	0	505	513	
10	0	0	0	0	507	512	
11	0	0	0	0	507	513	
12	0	0	0	0	507	512	
13	0	0	0	0	508	514	
14	0	0	0	0	507	511	
15	0	0	0	0	507	511	
0	0	0	0	0	505	512	
1	0	0	0	0	508	511	
2	0	0	0	0	506	511	
3	0	0	0	0	505	512	
4	0	0	0	0	505	511	
5	0	0	0	0	508	513	
6	0	0	0	0	510	513	
7	0	0	0	0	506	511	
8	0	0	0	0	503	512	
9	0	0	0	0	502	510	
10	0	0	0	0	503	512	
11	0	0	0	0	508	512	
12	0	0	0	0	513	513	
13	0	0	0	0	508	511	
14	0	0	0	0	502	513	
15	0	0	0	0	503	514	
0	0	0	0	0	506	513	
1	0	0	0	0	506	513	
2	0	0	0	0	505	511	
3	0	0	0	0	505	510	
4	0	0	0	0	507	511	
5	0	0	0	0	504	511	
6	0	0	0	0	504	511	
7	0	0	0	0	504	510	
8	0	0	0	0	507	512	
9	0	0	0	0	503	513	
10	0	0	0	0	504	512	
11	0	0	0	0	503	513	
12	0	0	0	0	508	512	
13	0	0	0	0	504	512	
14	0	0	0	0	506	510	
15	0	0	0	0	507	509	
0	0	0	0	0	509	510	
1	0	0	0	0	510	510	
2	0	0	0	0	510	511	
3	0	0	0	0	504	512	
4	0	0	0	0	503	512	
5	0	0	0	0	502	511	
6	0	0	0	0	505	511	
7	0	0	0	0	505	510	
8	0	0	0	0	505	512	
9	0	0	0	0	507	511	
10	0	0	0	0	505	512	
11	0	0	0	0	506	512	
12	0	0	0	0	505	513	
13	0	0	0	0	508	514	
14	0	0	0	0	510	513	
15	0	0	0	0	502	513	
0	0	0	0	0	504	511	
1	0	0	0	0	505	515	
2	0	0	0	0	508	511	
3	0	0	0	0	508	514	
4	0	0	0	0	500	511	
5	0	0	0	0	493	512	
6	0	0	0	0	495	511	
7	0	0	0	0	502	511	
8	0	0	0	0	510	511	
9	0	0	0	0	513	514	
10	0	0	0	0	512	511	
11	0	0	0	0	515	512	
12	0	0	0	0	516	511	
13	0	0	0	0	512	514	
14	0	0	0	0	515	511	
15	0	0	0	0	514	512	
0	0	0	0	0	515	511	
1	0	0	0	0	515	511	
2	0	0	0	0	508	511	
3	0	0	0	0	485	513	
4	0	0	0	0	471	511	
5	0	0	0	0	492	511	
6	0	0	0	0	495	511	
7	0	0	0	0	506	510	
8	0	0	0	0	515	511	
9	0	0	0	0	520	512	
10	0	0	0	0	513	511	
11	0	0	0	0	509	511	
12	0	0	0	0	486	512	
13	0	0	0	0	494	510	
14	0	0	0	0	482	510	
15	0	0	0	0	471	512	
0	0	0	0	0	481	512	
1	0	0	0	0	509	510	
2	0	0	0	0	515	512	
3	0	0	0	0	513	513	
4	0	0	0	0	513	510	
5	0	0	0	0	514	510	
6	0	0	0	0	516	511	
7	0	0	0	0	515	513	
8	0	0	0	0	514	511	
9	0	0	0	0	512	510	
10	0	0	0	0	512	512	
11	0	0	0	0	509	511	
12	0	0	0	0	508	513	
13	0	0	0	0	507	510	
14	0	0	0	0	509	509	
15	0	0	0	0	506	513	
0	0	0	0	0	508	510	
1	0	0	0	0	504	511	
2	0	0	0	0	505	513	
3	0	0	0	0	508	512	
4	0	0	0	0	505	513	
5	0	0	0	0	507	513	
6	0	0	0	0	504	512	
7	0	0	0	0	505	511	
8	0	0	0	0	508	512	
9	0	0	0	0	504	511	
10	0	0	0	0	502	513	
11	0	0	0	0	502	512	
12	0	0	0	0	506	512	
13	0	0	0	0	505	510	
14	0	0	0	0	504	510	
15	0	0	0	0	505	512	
0	0	0	0	0	505	512	
1	0	0	0	0	507	511	
2	0	0	0	0	507	512	
3	0	0	0	0	505	510	
4	0	0	0	0	504	513	
5	0	0	0	0	505	512	
6	0	0	0	0	509	512	
7	0	0	0	0	510	515	
8	0	0	0	0	512	513	
9	0	0	0	0	518	512	
10	0	0	0	0	514	513	
11	0	0	0	0	507	512	
12	0	0	0	0	495	512	
13	0	0	0	0	492	512	
14	0	0	0	0	486	512	
15	0	0	0	0	493	512	
0	0	0	0	0	499	512	
1	0	0	0	0	505	514	
2	0	0	0	0	509	513	
3	0	0	0	0	511	513	
4	0	0	0	0	511	515	
5	0	0	0	0	507	513	
6	0	0	0	0	508	511	
7	0	0	0	0	505	512	
8	0	0	0	0	502	513	
9	0	0	0	0	506	511	
10	0	0	0	0	504	511	
11	0	0	0	0	504	513	
12	0	0	0	0	509	511	
13	0	0	0	0	512	512	
14	0	0	0	0	510	512	
15	0	0	0	0	509	512	
0	0	0	0	0	508	512	
1	0	0	0	0	512	513	
2	0	0	0	0	517	513	
3	0	0	0	0	505	511	
4	0	0	0	0	503	513	
5	0	0	0	0	493	512	
6	0	0	0	0	500	515	
7	0	0	0	0	504	512	
8	0	0	0	0	500	512	
9	0	0	0	0	498	512	
10	0	0	0	0	503	511	
11	0	0	0	0	505	511	
12	0	0	0	0	505	512	
13	0	0	0	0	508	512	
14	0	0	0	0	508	514	
15	0	0	0	0	507	513	
0	0	0	0	0	509	512	
1	0	0	0	0	508	513	
2	0	0	0	0	506	510	
3	0	0	0	0	505	512	
4	0	0	0	0	506	512	
5	0	0	0	0	505	511	
6	0	0	0	0	505	512	
7	0	0	0	0	504	508	
8	0	0	0	0	515	514	
9	0	0	0	0	520	513	
10	0	0	0	0	523	511	
11	0	0	0	0	521	511	
12	0	0	0	0	513	512	
13	0	0	0	0	519	510	
14	0	0	0	0	516	513	
15	0	0	0	0	498	512	
0	0	0	0	0	460	510	
1	0	0	0	0	429	511	
2	0	0	0	0	476	512	
3	0	0	0	0	505	511	
4	0	0	0	0	512	513	
5	0	0	0	0	516	513	
6	0	0	0	0	518	511	
7	0	0	0	0	515	510	
8	0	0	0	0	515	511	
9	0	0	0	0	512	509	
10	0	0	0	0	507	511	
11	0	0	0	0	506	511	
12	0	0	0	0	506	508	
13	0	0	0	0	508	511	
14	0	0	0	0	506	509	
15	0	0	0	0	492	512	
0	0	0	0	0	502	510	
1	0	0	0	0	508	512	
2	0	0	0	0	509	509	
3	0	0	0	0	508	512	
4	0	0	0	0	505	511	
5	0	0	0	0	510	512	
6	0	0	0	0	508	511	
7	0	0	0	0	511	513	
8	0	0	0	0	511	511	
9	0	0	0	0	509	509	
10	0	0	0	0	512	512	
11	0	0	0	0	511	510	
12	0	0	0	0	508	509	
13	0	0	0	0	499	512	
14	0	0	0	0	485	513	
15	0	0	0	0	505	511	
0	0	0	0	0	519	512	
1	0	0	0	0	513	513	
2	0	0	0	0	495	511	
3	0	0	0	0	487	512	
4	0	0	0	0	487	511	
5	0	0	0	0	496	510	
6	0	0	0	0	507	511	
7	0	0	0	0	509	512	
8	0	0	0	0	511	513	
9	0	0	0	0	513	512	
10	0	0	0	0	509	512	
11	0	0	0	0	510	510	
12	0	0	0	0	512	511	
13	0	0	0	0	511	513	
14	0	0	0	0	508	512	
15	0	0	0	0	506	512	
0	0	0	0	0	501	512	
1	0	0	0	0	504	513	
2	0	0	0	0	507	513	
3	0	0	0	0	508	513	
4	0	0	0	0	508	510	
5	0	0	0	0	509	511	
6	0	0	0	0	505	512	
7	0	0	0	0	505	512	
8	0	0	0	0	505	511	
9	0	0	0	0	508	511	
10	0	0	0	0	505	512	
11	0	0	0	0	504	513	
12	0	0	0	0	505	512	
13	0	0	0	0	503	511	
14	0	0	0	0	502	513	
15	0	0	0	0	508	513	
0	0	0	0	0	505	513	
1	0	0	0	0	504	512	
2	0	0	0	0	508	515	
3	0	0	0	0	509	512	
4	0	0	0	0	511	513	
5	0	0	0	0	511	511	
6	0	0	0	0	510	511	
7	0	0	0	0	506	511	
8	0	0	0	0	496	511	
9	0	0	0	0	489	512	
10	0	0	0	0	492	515	
11	0	0	0	0	500	513	
12	0	0	0	0	503	514	
13	0	0	0	0	512	513	
14	0	0	0	0	513	513	
15	0	0	0	0	508	511	
0	0	0	0	0	507	513	
1	0	0	0	0	508	514	
2	0	0	0	0	505	513	
3	0	0	0	0	505	511	
4	0	0	0	0	510	512	
5	0	0	0	0	507	515	
6	0	0	0	0	502	514	
7	0	0	0	0	511	513	
8	0	0	0	0	519	511	
9	0	0	0	0	514	509	
10	0	0	0	0	508	510	
11	0	0	0	0	508	511	
12	0	0	0	0	513	513	
13	0	0	0	0	512	510	
14	0	0	0	0	499	509	
15	0	0	0	0	475	512	
0	0	0	0	0	496	512	
1	0	0	0	0	499	512	
2	0	0	0	0	497	511	
3	0	0	0	0	482	513	
4	0	0	0	0	497	511	
5	0	0	0	0	511	511	
6	0	0	0	0	515	511	
7	0	0	0	0	512	510	
8	0	0	0	0	510	512	
9	0	0	0	0	509	513	
10	0	0	0	0	512	511	
11	0	0	0	0	514	511	
12	0	0	0	0	511	512	
13	0	0	0	0	513	511	
14	0	0	0	0	516	512	
15	0	0	0	0	514	512	
0	0	0	0	0	508	512	
1	0	0	0	0	503	512	
2	0	0	0	0	495	513	
3	0	0	0	0	489	511	
4	0	0	0	0	479	510	
5	0	0	0	0	486	510	
6	0	0	0	0	507	511	
7	0	0	0	0	513	510	
8	0	0	0	0	512	510	
9	0	0	0	0	508	513	
10	0	0	0	0	508	509	
11	0	0	0	0	505	511	
12	0	0	0	0	507	511	
13	0	0	0	0	510	511	
14	0	0	0	0	511	510	
15	0	0	0	0	508	512	
0	0	0	0	0	506	513	
1	0	0	0	0	505	509	
2	0	0	0	0	507	510	
3	0	0	0	0	508	511	
4	0	0	0	0	506	512	
5	0	0	0	0	505	508	
6	0	0	0	0	507	513	
7	0	0	0	0	505	510	
8	0	0	0	0	506	512	
9	0	0	0	0	507	513	
10	0	0	0	0	509	512	
11	0	0	0	0	509	513	
12	0	0	0	0	513	512	
13	0	0	0	0	516	509	
14	0	0	0	0	515	510	
15	0	0	0	0	509	511	
0	0	0	0	0	494	509	
1	0	0	0	0	487	511	
2	0	0	0	0	482	510	
3	0	0	0	0	496	511	
4	0	0	0	0	504	513	
5	0	0	0	0	505	510	
6	0	0	0	0	506	512	
7	0	0	0	0	507	512	
8	0	0	0	0	508	511	
9	0	0	0	0	506	512	
10	0	0	0	0	507	511	
11	0	0	0	0	510	512	
12	0	0	0	0	509	511	
13	0	0	0	0	510	514	
14	0	0	0	0	512	515	
15	0	0	0	0	510	512	
0	0	0	0	0	506	510	
1	0	0	0	0	507	511	
2	0	0	0	0	505	512	
3	0	0	0	0	503	514	
4	0	0	0	0	497	515	
5	0	0	0	0	494	515	
6	0	0	0	0	502	516	
7	0	0	0	0	510	513	
8	0	0	0	0	515	513	
9	0	0	0	0	513	513	
10	0	0	0	0	515	512	
11	0	0	0	0	512	512	
12	0	0	0	0	509	511	
13	0	0	0	0	507	513	
14	0	0	0	0	505	512	
15	0	0	0	0	500	513	
0	0	0	0	0	472	512	
1	0	0	0	0	486	511	
2	0	0	0	0	503	513	
3	0	0	0	0	508	516	
4	0	0	0	0	506	514	
5	0	0	0	0	506	515	
6	0	0	0	0	503	514	
7	0	0	0	0	506	513	
8	0	0	0	0	513	512	
9	0	0	0	0	514	513	
10	0	0	0	0	515	515	
11	0	0	0	0	510	512	
12	0	0	0	0	508	512	
13	0	0	0	0	508	512	
14	0	0	0	0	503	513	
15	0	0	0	0	501	513	
0	0	0	0	0	504	512	
1	0	0	0	0	505	510	
2	0	0	0	0	507	513	
3	0	0	0	0	507	513	
4	0	0	0	0	504	514	
5	0	0	0	0	504	512	
6	0	0	0	0	505	511	
7	0	0	0	0	509	512	
8	0	0	0	0	508	511	
9	0	0	0	0	505	511	
10	0	0	0	0	504	512	
11	0	0	0	0	503	510	
12	0	0	0	0	503	511	
13	0	0	0	0	505	510	
14	0	0	0	0	507	510	
15	0	0	0	0	507	510	
0	0	0	0	0	505	511	
1	0	0	0	0	502	510	
2	0	0	0	0	502	509	
3	0	0	0	0	506	509	
4	0	0	0	0	505	509	
5	0	0	0	0	504	510	
6	0	0	0	0	518	512	
7	0	0	0	0	521	512	
8	0	0	0	0	519	511	
9	0	0	0	0	520	512	
10	0	0	0	0	518	512	
11	0	0	0	0	525	512	
12	0	0	0	0	530	511	
13	0	0	0	0	521	508	
14	0	0	0	0	479	509	
15	0	0	0	0	420	509	
0	0	0	0	0	438	510	
1	0	0	0	0	475	511	
2	0	0	0	0	499	514	
3	0	0	0	0	512	511	
4	0	0	0	0	515	511	
5	0	0	0	0	515	511	
6	0	0	0	0	513	509	
7	0	0	0	0	515	509	
8	0	0	0	0	513	508	
9	0	0	0	0	513	509	
10	0	0	0	0	513	509	
11	0	0	0	0	512	511	
12	0	0	0	0	509	511	
13	0	0	0	0	504	512	
14	0	0	0	0	514	512	
15	0	0	0	0	514	511	
0	0	0	0	0	507	511	
1	0	0	0	0	507	510	
2	0	0	0	0	504	510	
3	0	0	0	0	502	511	
4	0	0	0	0	498	510	
5	0	0	0	0	500	512	
6	0	0	0	0	501	511	
7	0	0	0	0	507	511	
8	0	0	0	0	510	511	
9	0	0	0	0	506	510	
10	0	0	0	0	507	510	
11	0	0	0	0	509	511	
12	0	0	0	0	510	514	
13	0	0	0	0	505	513	
14	0	0	0	0	502	513	
15	0	0	0	0	504	513	
0	0	0	0	0	505	511	
1	0	0	0	0	507	511	
2	0	0	0	0	507	513	
3	0	0	0	0	507	509	
4	0	0	0	0	505	511	
5	0	0	0	0	505	510	
6	0	0	0	0	505	511	
7	0	0	0	0	505	512	
8	0	0	0	0	505	514	
9	0	0	0	0	504	513	
10	0	0	0	0	504	515	
11	0	0	0	0	507	512	
12	0	0	0	0	503	513	
13	0	0	0	0	504	513	
14	0	0	0	0	507	512	
15	0	0	0	0	508	512	
0	0	0	0	0	508	513	
1	0	0	0	0	510	513	
2	0	0	0	0	504	515	
3	0	0	0	0	505	513	
4	0	0	0	0	504	512	
5	0	0	0	0	503	512	
6	0	0	0	0	507	512	
7	0	0	0	0	501	511	
8	0	0	0	0	496	512	
9	0	0	0	0	504	514	
10	0	0	0	0	506	513	
11	0	0	0	0	508	514	
12	0	0	0	0	508	513	
13	0	0	0	0	505	512	
14	0	0	0	0	505	514	
15	0	0	0	0	507	514	
0	0	0	0	0	506	514	
1	0	0	0	0	505	515	
2	0	0	0	0	511	512	
3	0	0	0	0	507	512	
4	0	0	0	0	507	510	
5	0	0	0	0	504	509	
6	0	0	0	0	504	512	
7	0	0	0	0	506	511	
8	0	0	0	0	500	513	
9	0	0	0	0	499	512	
10	0	0	0	0	505	514	
11	0	0	0	0	512	511	
12	0	0	0	0	515	510	
13	0	0	0	0	518	510	
14	0	0	0	0	519	510	
15	0	0	0	0	513	511	
0	0	0	0	0	509	513	
1	0	0	0	0	513	512	
2	0	0	0	0	507	514	
3	0	0	0	0	481	512	
4	0	0	0	0	462	509	
5	0	0	0	0	472	510	
6	0	0	0	0	496	513	
7	0	0	0	0	511	513	
8	0	0	0	0	510	513	
9	0	0	0	0	508	513	
10	0	0	0	0	507	512	
11	0	0	0	0	510	512	
12	0	0	0	0	511	515	
13	0	0	0	0	513	515	
14	0	0	0	0	511	515	
15	0	0	0	0	512	513	
0	0	0	0	0	513	511	
1	0	0	0	0	510	509	
2	0	0	0	0	504	511	
3	0	0	0	0	498	511	
4	0	0	0	0	499	511	
5	0	0	0	0	504	511	
6	0	0	0	0	507	512	
7	0	0	0	0	507	512	
8	0	0	0	0	509	511	
9	0	0	0	0	507	510	
10	0	0	0	0	505	511	
11	0	0	0	0	506	509	
12	0	0	0	0	503	511	
13	0	0	0	0	504	511	
14	0	0	0	0	504	512	
15	0	0	0	0	507	511	
0	0	0	0	0	505	511	
1	0	0	0	0	506	512	
2	0	0	0	0	505	511	
3	0	0	0	0	507	511	
4	0	0	0	0	511	511	
5	0	0	0	0	506	511	
6	0	0	0	0	504	511	
7	0	0	0	0	505	511	
8	0	0	0	0	506	511	
9	0	0	0	0	508	510	
10	0	0	0	0	509	511	
11	0	0	0	0	504	510	
12	0	0	0	0	505	509	
13	0	0	0	0	503	511	
14	0	0	0	0	502	511	
15	0	0	0	0	500	511	
0	0	0	0	0	504	511	
1	0	0	0	0	508	511	
2	0	0	0	0	510	511	
3	0	0	0	0	509	512	
4	0	0	0	0	510	512	
5	0	0	0	0	512	511	
6	0	0	0	0	516	514	
7	0	0	0	0	523	513	
8	0	0	0	0	516	511	
9	0	0	0	0	508	513	
10	0	0	0	0	498	512	
11	0	0	0	0	484	513	
12	0	0	0	0	496	508	
13	0	0	0	0	518	510	
14	0	0	0	0	519	511	
15	0	0	0	0	507	510	
0	0	0	0	0	479	512	
1	0	0	0	0	471	511	
2	0	0	0	0	480	513	
3	0	0	0	0	492	515	
4	0	0	0	0	507	513	
5	0	0	0	0	507	511	
6	0	0	0	0	507	513	
7	0	0	0	0	512	513	
8	0	0	0	0	513	512	
9	0	0	0	0	509	511	
10	0	0	0	0	511	511	
11	0	0	0	0	510	511	
12	0	0	0	0	508	512	
13	0	0	0	0	508	511	
14	0	0	0	0	507	511	
15	0	0	0	0	508	513	
0	0	0	0	0	507	511	
1	0	0	0	0	509	511	
2	0	0	0	0	512	512	
3	0	0	0	0	506	513	
4	0	0	0	0	504	516	
5	0	0	0	0	507	513	
6	0	0	0	0	507	513	
7	0	0	0	0	506	514	
8	0	0	0	0	506	513	
9	0	0	0	0	509	515	
10	0	0	0	0	503	515	
11	0	0	0	0	501	513	
12	0	0	0	0	505	511	
13	0	0	0	0	507	511	
14	0	0	0	0	507	511	
15	0	0	0	0	507	512	
0	0	0	0	0	509	511	
1	0	0	0	0	508	513	
2	0	0	0	0	508	513	
3	0	0	0	0	504	513	
4	0	0	0	0	505	512	
5	0	0	0	0	504	513	
6	0	0	0	0	503	513	
7	0	0	0	0	506	512	
8	0	0	0	0	513	511	
9	0	0	0	0	515	511	
10	0	0	0	0	508	513	
11	0	0	0	0	507	513	
12	0	0	0	0	509	514	
13	0	0	0	0	514	515	
14	0	0	0	0	512	511	
15	0	0	0	0	504	510	
0	0	0	0	0	484	510	
1	0	0	0	0	502	512	
2	0	0	0	0	515	510	
3	0	0	0	0	508	510	
4	0	0	0	0	481	510	
5	0	0	0	0	463	510	
6	0	0	0	0	473	510	
7	0	0	0	0	499	510	
8	0	0	0	0	515	511	
9	0	0	0	0	518	513	
10	0	0	0	0	514	511	
11	0	0	0	0	513	514	
12	0	0	0	0	516	514	
13	0	0	0	0	516	511	
14	0	0	0	0	516	510	
15	0	0	0	0	514	510	
0	0	0	0	0	506	513	
1	0	0	0	0	483	509	
2	0	0	0	0	488	508	
3	0	0	0	0	502	512	
4	0	0	0	0	508	513	
5	0	0	0	0	510	512	
6	0	0	0	0	511	512	
7	0	0	0	0	508	513	
8	0	0	0	0	510	515	
9	0	0	0	0	508	513	
10	0	0	0	0	501	514	
11	0	0	0	0	505	515	
12	0	0	0	0	508	511	
13	0	0	0	0	503	515	
14	0	0	0	0	506	508	
15	0	0	0	0	517	512	
0	0	0	0	0	522	510	
1	0	0	0	0	518	508	
2	0	0	0	0	518	510	
3	0	0	0	0	514	507	
4	0	0	0	0	499	507	
5	0	0	0	0	486	510	
6	0	0	0	0	483	510	
7	0	0	0	0	488	509	
8	0	0	0	0	499	512	
9	0	0	0	0	504	513	
10	0	0	0	0	506	512	
11	0	0	0	0	508	512	
12	0	0	0	0	508	511	
13	0	0	0	0	506	513	
14	0	0	0	0	506	512	
15	0	0	0	0	511	512	
0	0	0	0	0	512	512	
1	0	0	0	0	510	512	
2	0	0	0	0	508	513	
3	0	0	0	0	511	513	
4	0	0	0	0	512	515	
5	0	0	0	0	514	512	
6	0	0	0	0	513	513	
7	0	0	0	0	507	511	
8	0	0	0	0	499	511	
9	0	0	0	0	487	512	
10	0	0	0	0	496	512	
11	0	0	0	0	504	512	
12	0	0	0	0	494	513	
13	0	0	0	0	485	511	
14	0	0	0	0	504	512	
15	0	0	0	0	507	512	
0	0	0	0	0	509	511	
1	0	0	0	0	509	511	
2	0	0	0	0	506	512	
3	0	0	0	0	509	512	
4	0	0	0	0	508	512	
5	0	0	0	0	508	510	
6	0	0	0	0	508	511	
7	0	0	0	0	506	512	
8	0	0	0	0	508	513	
9	0	0	0	0	507	513	
10	0	0	0	0	505	509	
11	0	0	0	0	506	511	
12	0	0	0	0	504	512	
13	0	0	0	0	506	512	
14	0	0	0	0	510	512	
15	0	0	0	0	511	513	
0	0	0	0	0	505	515	
1	0	0	0	0	506	513	
2	0	0	0	0	507	513	
3	0	0	0	0	508	513	
4	0	0	0	0	507	514	
5	0	0	0	0	503	511	
6	0	0	0	0	501	514	
7	0	0	0	0	499	515	
8	0	0	0	0	500	514	
9	0	0	0	0	504	515	
10	0	0	0	0	512	513	
11	0	0	0	0	511	511	
12	0	0	0	0	509	511	
13	0	0	0	0	505	512	
14	0	0	0	0	507	512	
15	0	0	0	0	505	513	
0	0	0	0	0	506	511	
1	0	0	0	0	510	513	
2	0	0	0	0	507	514	
3	0	0	0	0	502	514	
4	0	0	0	0	500	512	
5	0	0	0	0	497	512	
6	0	0	0	0	504	509	
7	0	0	0	0	504	511	
8	0	0	0	0	505	511	
9	0	0	0	0	504	509	
10	0	0	0	0	506	513	
11	0	0	0	0	506	511	
12	0	0	0	0	504	512	
13	0	0	0	0	504	511	
14	0	0	0	0	511	510	
15	0	0	0	0	518	513	
0	0	0	0	0	516	515	
1	0	0	0	0	510	515	
2	0	0	0	0	508	516	
3	0	0	0	0	506	514	
4	0	0	0	0	507	514	
5	0	0	0	0	503	511	
6	0	0	0	0	489	511	
7	0	0	0	0	472	512	
8	0	0	0	0	494	512	
9	0	0	0	0	507	510	
10	0	0	0	0	511	512	
11	0	0	0	0	512	513	
12	0	0	0	0	510	511	
13	0	0	0	0	506	510	
14	0	0	0	0	508	509	
15	0	0	0	0	510	511	
0	0	0	0	0	510	508	
1	0	0	0	0	505	511	
2	0	0	0	0	505	510	
3	0	0	0	0	505	512	
4	0	0	0	0	503	512	
5	0	0	0	0	506	512	
6	0	0	0	0	507	511	
7	0	0	0	0	506	511	
8	0	0	0	0	510	511	
9	0	0	0	0	504	511	
10	0	0	0	0	503	511	
11	0	0	0	0	505	512	
12	0	0	0	0	505	510	
13	0	0	0	0	506	511	
14	0	0	0	0	506	512	
15	0	0	0	0	503	511	
0	0	0	0	0	503	511	
1	0	0	0	0	508	512	
2	0	0	0	0	510	511	
3	0	0	0	0	505	511	
4	0	0	0	0	508	512	
5	0	0	0	0	507	512	
6	0	0	0	0	506	513	
7	0	0	0	0	505	512	
8	0	0	0	0	506	512	
9	0	0	0	0	504	513	
10	0	0	0	0	511	510	
11	0	0	0	0	509	513	
12	0	0	0	0	508	511	
13	0	0	0	0	504	512	
14	0	0	0	0	506	512	
15	0	0	0	0	506	512	
0	0	0	0	0	509	511	
1	0	0	0	0	509	511	
2	0	0	0	0	503	515	
3	0	0	0	0	493	515	
4	0	0	0	0	483	512	
5	0	0	0	0	498	509	
6	0	0	0	0	504	510	
7	0	0	0	0	511	511	
8	0	0	0	0	511	508	
9	0	0	0	0	508	510	
10	0	0	0	0	504	511	
11	0	0	0	0	505	510	
12	0	0	0	0	506	510	
13	0	0	0	0	504	510	
14	0	0	0	0	510	510	
15	0	0	0	0	512	511	
0	0	0	0	0	507	511	
1	0	0	0	0	503	513	
2	0	0	0	0	506	512	
3	0	0	0	0	508	513	
4	0	0	0	0	507	514	
5	0	0	0	0	506	512	
6	0	0	0	0	505	511	
7	0	0	0	0	505	511	
8	0	0	0	0	506	514	
9	0	0	0	0	508	513	
10	0	0	0	0	507	512	
11	0	0	0	0	503	512	
12	0	0	0	0	505	511	
13	0	0	0	0	508	510	
14	0	0	0	0	508	515	
15	0	0	0	0	511	513	
0	0	0	0	0	510	511	
1	0	0	0	0	510	510	
2	0	0	0	0	512	511	
3	0	0	0	0	518	511	
4	0	0	0	0	520	512	
5	0	0	0	0	517	512	
6	0	0	0	0	496	510	
7	0	0	0	0	472	511	
8	0	0	0	0	481	514	
9	0	0	0	0	487	513	
10	0	0	0	0	493	517	
11	0	0	0	0	493	514	
12	0	0	0	0	500	513	
13	0	0	0	0	507	512	
14	0	0	0	0	510	512	
15	0	0	0	0	512	513	
0	0	0	0	0	511	512	
1	0	0	0	0	510	513	
2	0	0	0	0	513	514	
3	0	0	0	0	511	516	
4	0	0	0	0	507	512	
5	0	0	0	0	508	512	
6	0	0	0	0	507	512	
7	0	0	0	0	502	513	
8	0	0	0	0	505	511	
9	0	0	0	0	505	513	
10	0	0	0	0	508	513	
11	0	0	0	0	507	513	
12	0	0	0	0	504	513	
13	0	0	0	0	507	515	
14	0	0	0	0	508	512	
15	0	0	0	0	513	513	
0	0	0	0	0	516	511	
1	0	0	0	0	515	512	
2	0	0	0	0	513	511	
3	0	0	0	0	512	513	
4	0	0	0	0	508	511	
5	0	0	0	0	506	509	
6	0	0	0	0	500	512	
7	0	0	0	0	483	511	
8	0	0	0	0	495	510	
9	0	0	0	0	509	512	
10	0	0	0	0	511	513	
11	0	0	0	0	515	513	
12	0	0	0	0	513	509	
13	0	0	0	0	499	510	
14	0	0	0	0	475	510	
15	0	0	0	0	474	509	
0	0	0	0	0	496	511	
1	0	0	0	0	507	512	
2	0	0	0	0	506	512	
3	0	0	0	0	508	512	
4	0	0	0	0	517	510	
5	0	0	0	0	513	511	
6	0	0	0	0	511	510	
7	0	0	0	0	510	511	
8	0	0	0	0	504	510	
9	0	0	0	0	505	511	
10	0	0	0	0	508	513	
11	0	0	0	0	508	512	
12	0	0	0	0	507	511	
13	0	0	0	0	506	512	
14	0	0	0	0	508	513	
15	0	0	0	0	507	511	
0	0	0	0	0	508	513	
1	0	0	0	0	508	510	
2	0	0	0	0	505	511	
3	0	0	0	0	505	512	
4	0	0	0	0	508	512	
5	0	0	0	0	509	511	
6	0	0	0	0	508	511	
7	0	0	0	0	504	512	
8	0	0	0	0	504	511	
9	0	0	0	0	503	513	
10	0	0	0	0	502	513	
11	0	0	0	0	503	515	
12	0	0	0	0	505	511	
13	0	0	0	0	506	512	
14	0	0	0	0	505	512	
15	0	0	0	0	506	512	
0	0	0	0	0	505	512	
1	0	0	0	0	507	512	
2	0	0	0	0	505	511	
3	0	0	0	0	502	513	
4	0	0	0	0	504	509	
5	0	0	0	0	504	511	
6	0	0	0	0	507	512	
7	0	0	0	0	508	515	
8	0	0	0	0	508	514	
9	0	0	0	0	505	512	
10	0	0	0	0	507	513	
11	0	0	0	0	505	513	
12	0	0	0	0	505	512	
13	0	0	0	0	510	511	
14	0	0	0	0	510	512	
15	0	0	0	0	505	512	
0	0	0	0	0	504	512	
1	0	0	0	0	506	511	
2	0	0	0	0	506	510	
3	0	0	0	0	508	511	
4	0	0	0	0	509	513	
5	0	0	0	0	508	510	
6	0	0	0	0	507	512	
7	0	0	0	0	506	511	
8	0	0	0	0	503	511	
9	0	0	0	0	499	508	
10	0	0	0	0	506	510	
11	0	0	0	0	511	509	
12	0	0	0	0	517	510	
13	0	0	0	0	519	512	
14	0	0	0	0	510	512	
15	0	0	0	0	485	512	
0	0	0	0	0	467	512	
1	0	0	0	0	479	513	
2	0	0	0	0	496	514	
3	0	0	0	0	504	512	
4	0	0	0	0	504	511	
5	0	0	0	0	515	512	
6	0	0	0	0	519	512	
7	0	0	0	0	520	511	
8	0	0	0	0	516	511	
9	0	0	0	0	510	511	
10	0	0	0	0	510	511	
11	0	0	0	0	505	512	
12	0	0	0	0	501	512	
13	0	0	0	0	494	513	
14	0	0	0	0	481	512	
15	0	0	0	0	508	513	
0	0	0	0	0	517	513	
1	0	0	0	0	515	514	
2	0	0	0	0	513	513	
3	0	0	0	0	508	513	
4	0	0	0	0	503	513	
5	0	0	0	0	505	512	
6	0	0	0	0	504	512	
7	0	0	0	0	507	512	
8	0	0	0	0	506	512	
9	0	0	0	0	505	511	
10	0	0	0	0	502	512	
11	0	0	0	0	503	511	
12	0	0	0	0	505	509	
13	0	0	0	0	508	512	
14	0	0	0	0	507	514	
15	0	0	0	0	505	514	
0	0	0	0	0	502	513	
1	0	0	0	0	503	513	
2	0	0	0	0	509	511	
3	0	0	0	0	512	511	
4	0	0	0	0	515	513	
5	0	0	0	0	526	509	
6	0	0	0	0	536	509	
7	0	0	0	0	525	512	
8	0	0	0	0	526	510	
9	0	0	0	0	520	511	
10	0	0	0	0	494	512	
11	0	0	0	0	470	512	
12	0	0	0	0	463	511	
13	0	0	0	0	473	513	
14	0	0	0	0	462	512	
15	0	0	0	0	469	511	
0	0	0	0	0	500	511	
1	0	0	0	0	516	512	
2	0	0	0	0	517	512	
3	0	0	0	0	514	512	
4	0	0	0	0	512	512	
5	0	0	0	0	515	513	
6	0	0	0	0	512	512	
7	0	0	0	0	511	512	
8	0	0	0	0	508	512	
9	0	0	0	0	508	511	
10	0	0	0	0	508	512	
11	0	0	0	0	509	511	
12	0	0	0	0	509	510	
13	0	0	0	0	508	511	
14	0	0	0	0	507	512	
15	0	0	0	0	506	511	
0	0	0	0	0	507	511	
1	0	0	0	0	508	511	
2	0	0	0	0	506	509	
3	0	0	0	0	505	510	
4	0	0	0	0	507	510	
5	0	0	0	0	504	513	
6	0	0	0	0	506	512	
7	0	0	0	0	506	512	
8	0	0	0	0	506	513	
9	0	0	0	0	504	512	
10	0	0	0	0	505	513	
11	0	0	0	0	507	512	
12	0	0	0	0	505	511	
13	0	0	0	0	503	513	
14	0	0	0	0	505	510	
15	0	0	0	0	505	512	
0	0	0	0	0	505	511	
1	0	0	0	0	508	510	
2	0	0	0	0	504	511	
3	0	0	0	0	504	512	
4	0	0	0	0	505	512	
5	0	0	0	0	507	513	
6	0	0	0	0	504	512	
7	0	0	0	0	507	513	
8	0	0	0	0	509	511	
9	0	0	0	0	509	514	
10	0	0	0	0	509	512	
11	0	0	0	0	506	512	
12	0	0	0	0	505	512	
13	0	0	0	0	504	513	
14	0	0	0	0	500	513	
15	0	0	0	0	495	515	
0	0	0	0	0	497	513	
1	0	0	0	0	505	515	
2	0	0	0	0	506	513	
3	0	0	0	0	507	512	
4	0	0	0	0	505	511	
5	0	0	0	0	506	509	
6	0	0	0	0	503	511	
7	0	0	0	0	500	513	
8	0	0	0	0	504	511	
9	0	0	0	0	514	513	
10	0	0	0	0	516	511	
11	0	0	0	0	511	512	
12	0	0	0	0	508	512	
13	0	0	0	0	500	512	
14	0	0	0	0	500	514	
15	0	0	0	0	505	514	
0	0	0	0	0	507	515	
1	0	0	0	0	511	512	
2	0	0	0	0	515	512	
3	0	0	0	0	512	510	
4	0	0	0	0	513	513	
5	0	0	0	0	515	512	
6	0	0	0	0	517	511	
7	0	0	0	0	519	511	
8	0	0	0	0	497	513	
9	0	0	0	0	483	513	
10	0	0	0	0	476	512	
11	0	0	0	0	472	513	
12	0	0	0	0	486	511	
13	0	0	0	0	504	512	
14	0	0	0	0	511	513	
15	0	0	0	0	509	515	
0	0	0	0	0	508	515	
1	0	0	0	0	511	514	
2	0	0	0	0	510	511	
3	0	0	0	0	511	511	
4	0	0	0	0	511	513	
5	0	0	0	0	515	511	
6	0	0	0	0	521	511	
7	0	0	0	0	518	511	
8	0	0	0	0	508	511	
9	0	0	0	0	501	511	
10	0	0	0	0	500	510	
11	0	0	0	0	500	512	
12	0	0	0	0	495	510	
13	0	0	0	0	485	510	
14	0	0	0	0	502	511	
15	0	0	0	0	509	512	
0	0	0	0	0	511	508	
1	0	0	0	0	511	511	
2	0	0	0	0	507	511	
3	0	0	0	0	508	511	
4	0	0	0	0	504	513	
5	0	0	0	0	504	513	
6	0	0	0	0	506	514	
7	0	0	0	0	510	512	
8	0	0	0	0	508	511	
9	0	0	0	0	510	512	
10	0	0	0	0	508	510	
11	0	0	0	0	506	512	
12	0	0	0	0	503	512	
13	0	0	0	0	505	510	
14	0	0	0	0	501	511	
15	0	0	0	0	502	512	
0	0	0	0	0	503	511	
1	0	0	0	0	507	512	
2	0	0	0	0	509	511	
3	0	0	0	0	504	512	
4	0	0	0	0	503	510	
5	0	0	0	0	504	512	
6	0	0	0	0	505	510	
7	0	0	0	0	505	511	
8	0	0	0	0	505	512	
9	0	0	0	0	504	511	
10	0	0	0	0	507	512	
11	0	0	0	0	509	512	
12	0	0	0	0	510	511	
13	0	0	0	0	508	513	
14	0	0	0	0	508	511	
15	0	0	0	0	507	511	
0	0	0	0	0	509	509	
1	0	0	0	0	502	509	
2	0	0	0	0	494	511	
3	0	0	0	0	494	511	
4	0	0	0	0	500	511	
5	0	0	0	0	502	510	
6	0	0	0	0	501	510	
7	0	0	0	0	507	512	
8	0	0	0	0	510	511	
9	0	0	0	0	508	512	
10	0	0	0	0	511	510	
11	0	0	0	0	514	511	
12	0	0	0	0	510	512	
13	0	0	0	0	505	510	
14	0	0	0	0	503	511	
15	0	0	0	0	502	513	
0	0	0	0	0	505	510	
1	0	0	0	0	504	510	
2	0	0	0	0	507	510	
3	0	0	0	0	505	511	
4	0	0	0	0	506	510	
5	0	0	0	0	506	510	
6	0	0	0	0	505	511	
7	0	0	0	0	504	512	
8	0	0	0	0	504	511	
9	0	0	0	0	507	514	
10	0	0	0	0	507	515	
11	0	0	0	0	507	512	
12	0	0	0	0	506	512	
13	0	0	0	0	508	514	
14	0	0	0	0	503	514	
15	0	0	0	0	502	513	
0	0	0	0	0	502	514	
1	0	0	0	0	505	515	
2	0	0	0	0	508	514	
3	0	0	0	0	504	515	
4	0	0	0	0	502	515	
5	0	0	0	0	505	514	
6	0	0	0	0	505	510	
7	0	0	0	0	508	511	
8	0	0	0	0	511	512	
9	0	0	0	0	510	510	
10	0	0	0	0	508	512	
11	0	0	0	0	502	512	
12	0	0	0	0	503	514	
13	0	0	0	0	507	512	
14	0	0	0	0	508	512	
15	0	0	0	0	511	512	
0	0	0	0	0	513	512	
1	0	0	0	0	512	512	
2	0	0	0	0	519	511	
3	0	0	0	0	519	513	
4	0	0	0	0	522	511	
5	0	0	0	0	518	512	
6	0	0	0	0	494	512	
7	0	0	0	0	481	513	
8	0	0	0	0	455	515	
9	0	0	0	0	472	512	
10	0	0	0	0	497	514	
11	0	0	0	0	503	512	
12	0	0	0	0	488	513	
13	0	0	0	0	496	512	
14	0	0	0	0	509	512	
15	0	0	0	0	515	511	
0	0	0	0	0	517	510	
1	0	0	0	0	513	510	
2	0	0	0	0	510	508	
3	0	0	0	0	509	511	
4	0	0	0	0	508	513	
5	0	0	0	0	507	510	
6	0	0	0	0	508	513	
7	0	0	0	0	509	513	
8	0	0	0	0	508	515	
9	0	0	0	0	512	511	
10	0	0	0	0	511	511	
11	0	0	0	0	512	510	
12	0	0	0	0	510	510	
13	0	0	0	0	513	511	
14	0	0	0	0	511	511	
15	0	0	0	0	508	513	
0	0	0	0	0	505	512	
1	0	0	0	0	499	514	
2	0	0	0	0	497	513	
3	0	0	0	0	501	512	
4	0	0	0	0	507	512	
5	0	0	0	0	505	511	
6	0	0	0	0	486	509	
7	0	0	0	0	494	510	
8	0	0	0	0	504	511	
9	0	0	0	0	506	509	
10	0	0	0	0	507	512	
11	0	0	0	0	509	512	
12	0	0	0	0	511	513	
13	0	0	0	0	507	511	
14	0	0	0	0	506	511	
15	0	0	0	0	506	512	
0	0	0	0	0	508	510	
1	0	0	0	0	508	512	
2	0	0	0	0	507	514	
3	0	0	0	0	508	511	
4	0	0	0	0	507	511	
5	0	0	0	0	505	510	
6	0	0	0	0	504	509	
7	0	0	0	0	503	513	
8	0	0	0	0	504	511	
9	0	0	0	0	504	512	
10	0	0	0	0	503	512	
11	0	0	0	0	505	512	
12	0	0	0	0	506	511	
13	0	0	0	0	507	512	
14	0	0	0	0	505	515	
15	0	0	0	0	505	512	
0	0	0	0	0	508	511	
1	0	0	0	0	508	511	
2	0	0	0	0	508	512	
3	0	0	0	0	505	512	
4	0	0	0	0	505	512	
5	0	0	0	0	505	513	
6	0	0	0	0	504	514	
7	0	0	0	0	504	513	
8	0	0	0	0	507	512	
9	0	0	0	0	507	512	
10	0	0	0	0	508	512	
11	0	0	0	0	508	513	
12	0	0	0	0	508	512	
13	0	0	0	0	506	512	
14	0	0	0	0	502	512	
15	0	0	0	0	503	511	
0	0	0	0	0	504	511	
1	0	0	0	0	502	511	
2	0	0	0	0	499	512	
3	0	0	0	0	504	509	
4	0	0	0	0	505	512	
5	0	0	0	0	504	515	
6	0	0	0	0	505	513	
7	0	0	0	0	518	512	
8	0	0	0	0	531	513	
9	0	0	0	0	542	514	
10	0	0	0	0	534	512	
11	0	0	0	0	533	511	
12	0	0	0	0	532	513	
13	0	0	0	0	524	512	
14	0	0	0	0	492	509	
15	0	0	0	0	440	511	
0	0	0	0	0	420	510	
1	0	0	0	0	420	513	
2	0	0	0	0	479	511	
3	0	0	0	0	509	512	
4	0	0	0	0	519	512	
5	0	0	0	0	519	513	
6	0	0	0	0	517	512	
7	0	0	0	0	513	511	
8	0	0	0	0	510	513	
9	0	0	0	0	504	514	
10	0	0	0	0	496	513	
11	0	0	0	0	508	512	
12	0	0	0	0	515	512	
13	0	0	0	0	515	514	
14	0	0	0	0	515	512	
15	0	0	0	0	515	513	
0	0	0	0	0	511	515	
1	0	0	0	0	505	512	
2	0	0	0	0	497	512	
3	0	0	0	0	499	513	
4	0	0	0	0	511	511	
5	0	0	0	0	510	512	
6	0	0	0	0	512	513	
7	0	0	0	0	519	513	
8	0	0	0	0	515	510	
9	0	0	0	0	510	508	
10	0	0	0	0	511	510	
11	0	0	0	0	509	509	
12	0	0	0	0	509	511	
13	0	0	0	0	504	509	
14	0	0	0	0	499	510	
15	0	0	0	0	484	513	
0	0	0	0	0	488	511	
1	0	0	0	0	503	513	
2	0	0	0	0	508	512	
3	0	0	0	0	509	513	
4	0	0	0	0	509	510	
5	0	0	0	0	508	512	
6	0	0	0	0	509	513	
7	0	0	0	0	508	511	
8	0	0	0	0	508	508	
9	0	0	0	0	508	511	
10	0	0	0	0	503	511	
11	0	0	0	0	506	512	
12	0	0	0	0	505	513	
13	0	0	0	0	502	512	
14	0	0	0	0	499	512	
15	0	0	0	0	507	511	
0	0	0	0	0	510	511	
1	0	0	0	0	505	513	
2	0	0	0	0	505	510	
3	0	0	0	0	504	511	
4	0	0	0	0	505	510	
5	0	0	0	0	509	511	
6	0	0	0	0	506	511	
7	0	0	0	0	506	511	
8	0	0	0	0	508	512	
9	0	0	0	0	505	513	
10	0	0	0	0	507	512	
11	0	0	0	0	504	510	
12	0	0	0	0	502	513	
13	0	0	0	0	500	510	
14	0	0	0	0	504	510	
15	0	0	0	0	507	511	
0	0	0	0	0	509	511	
1	0	0	0	0	508	512	
2	0	0	0	0	507	512	
3	0	0	0	0	503	513	
4	0	0	0	0	504	513	
5	0	0	0	0	506	513	
6	0	0	0	0	506	511	
7	0	0	0	0	504	512	
8	0	0	0	0	504	512	
9	0	0	0	0	503	512	
10	0	0	0	0	503	513	
11	0	0	0	0	507	512	
12	0	0	0	0	509	509	
13	0	0	0	0	510	511	
14	0	0	0	0	509	513	
15	0	0	0	0	503	511	
0	0	0	0	0	501	512	
1	0	0	0	0	505	514	
2	0	0	0	0	503	513	
3	0	0	0	0	504	511	
4	0	0	0	0	499	512	
5	0	0	0	0	499	513	
6	0	0	0	0	509	512	
7	0	0	0	0	526	512	
8	0	0	0	0	531	512	
9	0	0	0	0	527	513	
10	0	0	0	0	524	514	
11	0	0	0	0	524	516	
12	0	0	0	0	513	515	
13	0	0	0	0	500	515	
14	0	0	0	0	480	511	
15	0	0	0	0	477	510	
0	0	0	0	0	473	512	
1	0	0	0	0	503	513	
2	0	0	0	0	520	515	
3	0	0	0	0	513	512	
4	0	0	0	0	510	511	
5	0	0	0	0	511	513	
6	0	0	0	0	505	511	
7	0	0	0	0	475	512	
8	0	0	0	0	434	511	
9	0	0	0	0	471	513	
10	0	0	0	0	487	510	
11	0	0	0	0	509	514	
12	0	0	0	0	517	514	
13	0	0	0	0	519	512	
14	0	0	0	0	519	513	
15	0	0	0	0	517	515	
0	0	0	0	0	513	514	
1	0	0	0	0	513	514	
2	0	0	0	0	513	512	
3	0	0	0	0	517	512	
4	0	0	0	0	511	510	
5	0	0	0	0	508	510	
6	0	0	0	0	511	509	
7	0	0	0	0	511	512	
8	0	0	0	0	509	511	
9	0	0	0	0	509	510	
10	0	0	0	0	508	512	
11	0	0	0	0	507	511	
12	0	0	0	0	512	512	
13	0	0	0	0	512	510	
14	0	0	0	0	511	511	
15	0	0	0	0	514	510	
0	0	0	0	0	514	511	
1	0	0	0	0	512	510	
2	0	0	0	0	512	510	
3	0	0	0	0	509	511	
4	0	0	0	0	484	513	
5	0	0	0	0	459	512	
6	0	0	0	0	478	509	
7	0	0	0	0	502	511	
8	0	0	0	0	511	510	
9	0	0	0	0	513	513	
10	0	0	0	0	511	512	
11	0	0	0	0	509	512	
12	0	0	0	0	507	512	
13	0	0	0	0	507	511	
14	0	0	0	0	504	512	
15	0	0	0	0	508	512	
0	0	0	0	0	507	510	
1	0	0	0	0	505	512	
2	0	0	0	0	508	514	
3	0	0	0	0	508	511	
4	0	0	0	0	506	513	
5	0	0	0	0	506	510	
6	0	0	0	0	505	511	
7	0	0	0	0	508	511	
8	0	0	0	0	508	511	
9	0	0	0	0	508	511	
10	0	0	0	0	505	511	
11	0	0	0	0	507	512	
12	0	0	0	0	507	511	
13	0	0	0	0	505	512	
14	0	0	0	0	506	511	
15	0	0	0	0	503	511	
0	0	0	0	0	502	512	
1	0	0	0	0	500	511	
2	0	0	0	0	500	513	
3	0	0	0	0	504	511	
4	0	0	0	0	506	511	
5	0	0	0	0	504	513	
6	0	0	0	0	504	512	
7	0	0	0	0	509	510	
8	0	0	0	0	509	510	
9	0	0	0	0	505	513	
10	0	0	0	0	508	512	
11	0	0	0	0	514	511	
12	0	0	0	0	507	510	
13	0	0	0	0	504	514	
14	0	0	0	0	503	511	
15	0	0	0	0	505	512	
0	0	0	0	0	507	511	
1	0	0	0	0	508	512	
2	0	0	0	0	511	512	
3	0	0	0	0	514	511	
4	0	0	0	0	509	511	
5	0	0	0	0	506	514	
6	0	0	0	0	505	511	
7	0	0	0	0	502	511	
8	0	0	0	0	501	513	
9	0	0	0	0	498	513	
10	0	0	0	0	502	513	
11	0	0	0	0	499	511	
12	0	0	0	0	494	511	
13	0	0	0	0	499	513	
14	0	0	0	0	516	515	
15	0	0	0	0	529	512	
0	0	0	0	0	536	513	
1	0	0	0	0	518	511	
2	0	0	0	0	499	512	
3	0	0	0	0	493	513	
4	0	0	0	0	492	512	
5	0	0	0	0	502	513	
6	0	0	0	0	500	513	
7	0	0	0	0	488	512	
8	0	0	0	0	506	513	
9	0	0	0	0	494	513	
10	0	0	0	0	493	512	
11	0	0	0	0	486	513	
12	0	0	0	0	490	514	
13	0	0	0	0	504	513	
14	0	0	0	0	504	512	
15	0	0	0	0	502	513	
0	0	0	0	0	505	515	
1	0	0	0	0	515	512	
2	0	0	0	0	525	513	
3	0	0	0	0	522	509	
4	0	0	0	0	512	511	
5	0	0	0	0	504	508	
6	0	0	0	0	504	511	
7	0	0	0	0	505	511	
8	0	0	0	0	507	511	
9	0	0	0	0	507	511	
10	0	0	0	0	505	513	
11	0	0	0	0	506	510	
12	0	0	0	0	508	513	
13	0	0	0	0	508	512	
14	0	0	0	0	510	511	
15	0	0	0	0	508	513	
0	0	0	0	0	507	512	
1	0	0	0	0	512	512	
2	0	0	0	0	511	511	
3	0	0	0	0	511	511	
4	0	0	0	0	507	512	
5	0	0	0	0	505	513	
6	0	0	0	0	508	510	
7	0	0	0	0	504	512	
8	0	0	0	0	487	512	
9	0	0	0	0	479	511	
10	0	0	0	0	499	510	
11	0	0	0	0	510	512	
12	0	0	0	0	510	510	
13	0	0	0	0	510	509	
14	0	0	0	0	507	512	
15	0	0	0	0	504	511	
0	0	0	0	0	505	512	
1	0	0	0	0	507	510	
2	0	0	0	0	507	510	
3	0	0	0	0	512	512	
4	0	0	0	0	516	511	
5	0	0	0	0	517	512	
6	0	0	0	0	514	510	
7	0	0	0	0	511	510	
8	0	0	0	0	508	511	
9	0	0	0	0	503	512	
10	0	0	0	0	491	512	
11	0	0	0	0	470	514	
12	0	0	0	0	493	513	
13	0	0	0	0	507	511	
14	0	0	0	0	508	511	
15	0	0	0	0	508	514	
0	0	0	0	0	506	512	
1	0	0	0	0	505	511	
2	0	0	0	0	505	509	
3	0	0	0	0	508	512	
4	0	0	0	0	506	513	
5	0	0	0	0	505	514	
6	0	0	0	0	511	511	
7	0	0	0	0	516	513	
8	0	0	0	0	513	513	
9	0	0	0	0	506	512	
10	0	0	0	0	502	511	
11	0	0	0	0	504	513	
12	0	0	0	0	504	511	
13	0	0	0	0	506	512	
14	0	0	0	0	507	511	
15	0	0	0	0	510	511	
0	0	0	0	0	507	513	
1	0	0	0	0	504	512	
2	0	0	0	0	504	513	
3	0	0	0	0	507	512	
4	0	0	0	0	508	511	
5	0	0	0	0	508	512	
6	0	0	0	0	507	512	
7	0	0	0	0	503	510	
8	0	0	0	0	500	513	
9	0	0	0	0	499	515	
10	0	0	0	0	506	516	
11	0	0	0	0	507	515	
12	0	0	0	0	500	513	
13	0	0	0	0	496	511	
14	0	0	0	0	498	512	
15	0	0	0	0	502	512	
0	0	0	0	0	508	511	
1	0	0	0	0	511	511	
2	0	0	0	0	512	509	
3	0	0	0	0	517	509	
4	0	0	0	0	519	511	
5	0	0	0	0	520	511	
6	0	0	0	0	519	512	
7	0	0	0	0	518	511	
8	0	0	0	0	511	513	
9	0	0	0	0	485	513	
10	0	0	0	0	480	513	
11	0	0	0	0	484	515	
12	0	0	0	0	480	513	
13	0	0	0	0	476	510	
14	0	0	0	0	502	511	
15	0	0	0	0	517	513	
0	0	0	0	0	520	511	
1	0	0	0	0	518	512	
2	0	0	0	0	513	512	
3	0	0	0	0	513	515	
4	0	0	0	0	523	516	
5	0	0	0	0	527	513	
6	0	0	0	0	503	512	
7	0	0	0	0	470	511	
8	0	0	0	0	469	508	
9	0	0	0	0	494	510	
10	0	0	0	0	507	511	
11	0	0	0	0	511	510	
12	0	0	0	0	512	512	
13	0	0	0	0	512	513	
14	0	0	0	0	511	511	
15	0	0	0	0	508	512	
0	0	0	0	0	505	514	
1	0	0	0	0	508	511	
2	0	0	0	0	507	512	
3	0	0	0	0	508	511	
4	0	0	0	0	505	511	
5	0	0	0	0	509	513	
6	0	0	0	0	513	511	
7	0	0	0	0	514	511	
8	0	0	0	0	518	510	
9	0	0	0	0	511	511	
10	0	0	0	0	505	509	
11	0	0	0	0	504	510	
12	0	0	0	0	507	512	
13	0	0	0	0	502	511	
14	0	0	0	0	490	511	
15	0	0	0	0	484	510	
0	0	0	0	0	501	510	
1	0	0	0	0	507	511	
2	0	0	0	0	507	510	
3	0	0	0	0	506	510	
4	0	0	0	0	504	511	
5	0	0	0	0	502	511	
6	0	0	0	0	504	511	
7	0	0	0	0	504	512	
8	0	0	0	0	503	511	
9	0	0	0	0	512	511	
10	0	0	0	0	520	515	
11	0	0	0	0	520	513	
12	0	0	0	0	511	513	
13	0	0	0	0	503	510	
14	0	0	0	0	502	511	
15	0	0	0	0	497	515	
0	0	0	0	0	497	511	
1	0	0	0	0	502	511	
2	0	0	0	0	503	513	
3	0	0	0	0	508	512	
4	0	0	0	0	515	512	
5	0	0	0	0	516	513	
6	0	0	0	0	514	511	
7	0	0	0	0	512	508	
8	0	0	0	0	508	512	
9	0	0	0	0	506	513	
10	0	0	0	0	502	511	
11	0	0	0	0	507	511	
12	0	0	0	0	506	511	
13	0	0	0	0	502	514	
14	0	0	0	0	499	511	
15	0	0	0	0	505	512	
0	0	0	0	0	516	511	
1	0	0	0	0	519	513	
2	0	0	0	0	507	513	
3	0	0	0	0	485	515	
4	0	0	0	0	483	511	
5	0	0	0	0	496	515	
6	0	0	0	0	503	513	
7	0	0	0	0	493	509	
8	0	0	0	0	485	510	
9	0	0	0	0	501	510	
10	0	0	0	0	513	511	
11	0	0	0	0	514	512	
12	0	0	0	0	511	512	
13	0	0	0	0	511	512	
14	0	0	0	0	514	512	
15	0	0	0	0	511	513	
0	0	0	0	0	508	513	
1	0	0	0	0	505	514	
2	0	0	0	0	495	511	
3	0	0	0	0	508	513	
4	0	0	0	0	516	513	
5	0	0	0	0	511	514	
6	0	0	0	0	509	515	
7	0	0	0	0	508	513	
8	0	0	0	0	503	511	
9	0	0	0	0	476	510	
10	0	0	0	0	494	512	
11	0	0	0	0	519	512	
12	0	0	0	0	516	510	
13	0	0	0	0	492	513	
14	0	0	0	0	480	513	
15	0	0	0	0	497	512	
0	0	0	0	0	511	512	
1	0	0	0	0	520	510	
2	0	0	0	0	523	512	
3	0	0	0	0	521	511	
4	0	0	0	0	522	514	
5	0	0	0	0	524	513	
6	0	0	0	0	515	511	
7	0	0	0	0	507	508	
8	0	0	0	0	493	506	
9	0	0	0	0	487	510	
10	0	0	0	0	469	512	
11	0	0	0	0	479	516	
12	0	0	0	0	512	515	
13	0	0	0	0	519	513	
14	0	0	0	0	508	512	
15	0	0	0	0	504	512	
0	0	0	0	0	499	512	
1	0	0	0	0	507	511	
2	0	0	0	0	506	511	
3	0	0	0	0	506	511	
4	0	0	0	0	508	513	
5	0	0	0	0	507	514	
6	0	0	0	0	514	513	
7	0	0	0	0	520	512	
8	0	0	0	0	517	515	
9	0	0	0	0	524	513	
10	0	0	0	0	532	510	
11	0	0	0	0	528	511	
12	0	0	0	0	495	510	
13	0	0	0	0	460	507	
14	0	0	0	0	459	508	
15	0	0	0	0	496	508	
0	0	0	0	0	508	509	
1	0	0	0	0	503	510	
2	0	0	0	0	489	516	
3	0	0	0	0	503	515	
4	0	0	0	0	505	515	
5	0	0	0	0	502	516	
6	0	0	0	0	503	519	
7	0	0	0	0	503	515	
8	0	0	0	0	518	515	
9	0	0	0	0	511	513	
10	0	0	0	0	513	508	
11	0	0	0	0	515	502	
12	0	0	0	0	543	503	
13	0	0	0	0	542	502	
14	0	0	0	0	527	505	
15	0	0	0	0	487	511	
0	0	0	0	0	457	513	
1	0	0	0	0	470	515	
2	0	0	0	0	495	515	
3	0	0	0	0	505	514	
4	0	0	0	0	510	513	
5	0	0	0	0	508	515	
6	0	0	0	0	510	512	
7	0	0	0	0	510	511	
8	0	0	0	0	511	510	
9	0	0	0	0	513	510	
10	0	0	0	0	508	512	
11	0	0	0	0	512	512	
12	0	0	0	0	527	512	
13	0	0	0	0	524	513	
14	0	0	0	0	520	513	
15	0	0	0	0	519	513	
0	0	0	0	0	521	513	
1	0	0	0	0	531	511	
2	0	0	0	0	514	511	
3	0	0	0	0	459	510	
4	0	0	0	0	453	511	
5	0	0	0	0	491	512	
6	0	0	0	0	513	513	
7	0	0	0	0	498	511	
8	0	0	0	0	478	513	
9	0	0	0	0	476	512	
10	0	0	0	0	495	513	
11	0	0	0	0	508	510	
12	0	0	0	0	507	512	
13	0	0	0	0	509	511	
14	0	0	0	0	513	512	
15	0	0	0	0	523	513	
0	0	0	0	0	527	512	
1	0	0	0	0	530	513	
2	0	0	0	0	529	512	
3	0	0	0	0	531	512	
4	0	0	0	0	527	512	
5	0	0	0	0	510	511	
6	0	0	0	0	487	512	
7	0	0	0	0	445	510	
8	0	0	0	0	453	509	
9	0	0	0	0	451	508	
10	0	0	0	0	478	515	
11	0	0	0	0	501	514	
12	0	0	0	0	508	513	
13	0	0	0	0	503	513	
14	0	0	0	0	495	516	
15	0	0	0	0	511	515	
0	0	0	0	0	532	514	
1	0	0	0	0	533	514	
2	0	0	0	0	532	514	
3	0	0	0	0	527	511	
4	0	0	0	0	520	513	
5	0	0	0	0	513	510	
6	0	0	0	0	522	511	
7	0	0	0	0	519	509	
8	0	0	0	0	517	508	
9	0	0	0	0	531	507	
10	0	0	0	0	508	508	
11	0	0	0	0	472	510	
12	0	0	0	0	480	511	
13	0	0	0	0	491	513	
14	0	0	0	0	502	512	
15	0	0	0	0	499	512	
0	0	0	0	0	502	511	
1	0	0	0	0	508	513	
2	0	0	0	0	508	512	
3	0	0	0	0	507	513	
4	0	0	0	0	503	515	
5	0	0	0	0	506	513	
6	0	0	0	0	512	514	
7	0	0	0	0	513	513	
8	0	0	0	0	521	513	
9	0	0	0	0	521	512	
10	0	0	0	0	518	514	
11	0	0	0	0	513	515	
12	0	0	0	0	499	515	
13	0	0	0	0	479	512	
14	0	0	0	0	499	511	
15	0	0	0	0	509	509	
0	0	0	0	0	499	510	
1	0	0	0	0	501	510	
2	0	0	0	0	513	510	
3	0	0	0	0	527	515	
4	0	0	0	0	494	515	
5	0	0	0	0	445	513	
6	0	0	0	0	461	512	
7	0	0	0	0	506	513	
8	0	0	0	0	516	509	
9	0	0	0	0	519	508	
10	0	0	0	0	527	511	
11	0	0	0	0	526	510	
12	0	0	0	0	522	513	
13	0	0	0	0	529	512	
14	0	0	0	0	540	511	
15	0	0	0	0	527	511	
0	0	0	0	0	534	513	
1	0	0	0	0	519	513	
2	0	0	0	0	510	516	
3	0	0	0	0	527	513	
4	0	0	0	0	495	509	
5	0	0	0	0	423	510	
6	0	0	0	0	368	508	
7	0	0	0	0	410	510	
8	0	0	0	0	443	510	
9	0	0	0	0	494	513	
10	0	0	0	0	526	512	
11	0	0	0	0	529	513	
12	0	0	0	0	540	514	
13	0	0	0	0	566	513	
14	0	0	0	0	561	512	
15	0	0	0	0	548	511	
0	0	0	0	0	540	508	
1	0	0	0	0	531	511	
2	0	0	0	0	518	508	
3	0	0	0	0	513	505	
4	0	0	0	0	475	508	
5	0	0	0	0	436	513	
6	0	0	0	0	468	515	
7	0	0	0	0	505	515	
8	0	0	0	0	537	518	
9	0	0	0	0	551	515	
10	0	0	0	0	548	512	
11	0	0	0	0	538	511	
12	0	0	0	0	523	508	
13	0	0	0	0	511	508	
14	0	0	0	0	498	511	
15	0	0	0	0	441	514	
0	0	0	0	0	375	512	
1	0	0	0	0	460	512	
2	0	0	0	0	521	512	
3	0	0	0	0	534	513	
4	0	0	0	0	528	513	
5	0	0	0	0	520	514	
6	0	0	0	0	514	515	
7	0	0	0	0	484	515	
8	0	0	0	0	464	515	
9	0	0	0	0	474	512	
10	0	0	0	0	511	508	
11	0	0	0	0	540	508	
12	0	0	0	0	526	512	
13	0	0	0	0	509	511	
14	0	0	0	0	537	510	
15	0	0	0	0	534	511	
0	0	0	0	0	504	511	
1	0	0	0	0	487	513	
2	0	0	0	0	489	512	
3	0	0	0	0	526	514	
4	0	0	0	0	525	516	
5	0	0	0	0	506	514	
6	0	0	0	0	519	512	
7	0	0	0	0	516	514	
8	0	0	0	0	472	513	
9	0	0	0	0	458	510	
10	0	0	0	0	510	511	
11	0	0	0	0	555	510	
12	0	0	0	0	572	510	
13	0	0	0	0	561	509	
14	0	0	0	0	503	504	
15	0	0	0	0	464	508	
0	0	0	0	0	496	513	
1	0	0	0	0	492	514	
2	0	0	0	0	473	519	
3	0	0	0	0	508	518	
4	0	0	0	0	539	515	
5	0	0	0	0	542	508	
6	0	0	0	0	547	502	
7	0	0	0	0	506	505	
8	0	0	0	0	423	509	
9	0	0	0	0	383	516	
10	0	0	0	0	474	515	
11	0	0	0	0	533	512	
12	0	0	0	0	496	508	
13	0	0	0	0	420	513	
14	0	0	0	0	465	515	
15	0	0	0	0	496	517	
0	0	0	0	0	519	515	
1	0	0	0	0	511	516	
2	0	0	0	0	530	513	
3	0	0	0	0	559	509	
4	0	0	0	0	571	510	
5	0	0	0	0	507	507	
6	0	0	0	0	435	509	
7	0	0	0	0	494	513	
8	0	0	0	0	542	513	
9	0	0	0	0	551	512	
10	0	0	0	0	542	511	
11	0	0	0	0	543	512	
12	0	0	0	0	540	511	
13	0	0	0	0	543	509	
14	0	0	0	0	547	511	
15	0	0	0	0	513	511	
0	0	0	0	0	494	515	
1	0	0	0	0	499	515	
2	0	0	0	0	414	514	
3	0	0	0	0	428	513	
4	0	0	0	0	510	512	
5	0	0	0	0	540	509	
6	0	0	0	0	531	508	
7	0	0	0	0	485	514	
8	0	0	0	0	467	513	
9	0	0	0	0	509	513	
10	0	0	0	0	481	514	
11	0	0	0	0	461	511	
12	0	0	0	0	491	507	
13	0	0	0	0	499	508	
14	0	0	0	0	519	510	
15	0	0	0	0	524	508	
0	0	0	0	0	513	509	
1	0	0	0	0	515	508	
2	0	0	0	0	512	506	
3	0	0	0	0	523	507	
4	0	0	0	0	495	508	
5	0	0	0	0	487	512	
6	0	0	0	0	525	515	
7	0	0	0	0	556	515	
8	0	0	0	0	552	512	
9	0	0	0	0	517	512	
10	0	0	0	0	528	514	
11	0	0	0	0	540	518	
12	0	0	0	0	526	514	
13	0	0	0	0	472	512	
14	0	0	0	0	454	512	
15	0	0	0	0	430	511	
0	0	0	0	0	480	511	
1	0	0	0	0	465	510	
2	0	0	0	0	455	509	
3	0	0	0	0	499	510	
4	0	0	0	0	515	510	
5	0	0	0	0	515	511	
6	0	0	0	0	519	513	
7	0	0	0	0	528	515	
8	0	0	0	0	524	514	
9	0	0	0	0	519	513	
10	0	0	0	0	517	514	
11	0	0	0	0	509	513	
12	0	0	0	0	509	512	
13	0	0	0	0	515	509	
14	0	0	0	0	511	508	
15	0	0	0	0	519	507	
0	0	0	0	0	518	507	
1	0	0	0	0	485	510	
2	0	0	0	0	477	515	
3	0	0	0	0	493	515	
4	0	0	0	0	505	516	
5	0	0	0	0	554	515	
6	0	0	0	0	593	516	
7	0	0	0	0	582	515	
8	0	0	0	0	520	512	
9	0	0	0	0	487	513	
10	0	0	0	0	488	513	
11	0	0	0	0	488	513	
12	0	0	0	0	393	514	
13	0	0	0	0	454	513	
14	0	0	0	0	512	511	
15	0	0	0	0	496	510	
0	0	0	0	0	455	517	
1	0	0	0	0	521	513	
2	0	0	0	0	555	510	
3	0	0	0	0	555	515	
4	0	0	0	0	559	513	
5	0	0	0	0	464	510	
6	0	0	0	0	474	510	
7	0	0	0	0	547	510	
8	0	0	0	0	569	515	
9	0	0	0	0	569	512	
10	0	0	0	0	506	512	
11	0	0	0	0	481	511	
12	0	0	0	0	478	508	
13	0	0	0	0	544	517	
14	0	0	0	0	513	519	
15	0	0	0	0	342	515	
0	0	0	0	0	468	508	
1	0	0	0	0	536	505	
2	0	0	0	0	447	507	
3	0	0	0	0	421	509	
4	0	0	0	0	486	511	
5	0	0	0	0	494	508	
6	0	0	0	0	440	511	
7	0	0	0	0	448	513	
8	0	0	0	0	518	516	
9	0	0	0	0	520	516	
10	0	0	0	0	531	512	
11	0	0	0	0	536	508	
12	0	0	0	0	534	511	
13	0	0	0	0	540	511	
14	0	0	0	0	534	512	
15	0	0	0	0	519	512	
0	0	0	0	0	515	511	
1	0	0	0	0	521	513	
2	0	0	0	0	524	510	
3	0	0	0	0	511	510	
4	0	0	0	0	511	510	
5	0	0	0	0	519	509	
6	0	0	0	0	528	514	
7	0	0	0	0	520	512	
8	0	0	0	0	501	514	
9	0	0	0	0	496	515	
10	0	0	0	0	514	513	
11	0	0	0	0	525	511	
12	0	0	0	0	515	512	
13	0	0	0	0	495	512	
14	0	0	0	0	474	510	
15	0	0	0	0	483	508	
0	0	0	0	0	512	510	
1	0	0	0	0	528	511	
2	0	0	0	0	519	511	
3	0	0	0	0	494	507	
4	0	0	0	0	492	505	
5	0	0	0	0	497	508	
6	0	0	0	0	515	509	
7	0	0	0	0	521	510	
8	0	0	0	0	542	510	
9	0	0	0	0	551	517	
10	0	0	0	0	546	518	
11	0	0	0	0	551	515	
12	0	0	0	0	554	514	
13	0	0	0	0	515	513	
14	0	0	0	0	433	504	
15	0	0	0	0	491	504	
0	0	0	0	0	510	509	
1	0	0	0	0	390	508	
2	0	0	0	0	365	516	
3	0	0	0	0	426	514	
4	0	0	0	0	499	516	
5	0	0	0	0	513	515	
6	0	0	0	0	517	513	
7	0	0	0	0	526	516	
8	0	0	0	0	522	513	
9	0	0	0	0	521	512	
10	0	0	0	0	510	511	
11	0	0	0	0	553	508	
12	0	0	0	0	560	511	
13	0	0	0	0	517	512	
14	0	0	0	0	485	513	
15	0	0	0	0	502	510	
0	0	0	0	0	532	509	
1	0	0	0	0	529	512	
2	0	0	0	0	444	515	
3	0	0	0	0	460	518	
4	0	0	0	0	509	518	
5	0	0	0	0	529	515	
6	0	0	0	0	536	509	
7	0	0	0	0	524	504	
8	0	0	0	0	516	506	
9	0	0	0	0	456	507	
10	0	0	0	0	459	513	
11	0	0	0	0	517	516	
12	0	0	0	0	542	513	
13	0	0	0	0	536	512	
14	0	0	0	0	527	513	
15	0	0	0	0	497	513	
0	0	0	0	0	481	519	
1	0	0	0	0	522	516	
2	0	0	0	0	571	510	
3	0	0	0	0	603	510	
4	0	0	0	0	567	506	
5	0	0	0	0	513	503	
6	0	0	0	0	518	508	
7	0	0	0	0	374	510	
8	0	0	0	0	374	512	
9	0	0	0	0	383	518	
10	0	0	0	0	473	516	
11	0	0	0	0	518	515	
12	0	0	0	0	507	516	
13	0	0	0	0	500	516	
14	0	0	0	0	532	512	
15	0	0	0	0	542	507	
0	0	0	0	0	564	506	
1	0	0	0	0	592	505	
2	0	0	0	0	590	510	
3	0	0	0	0	582	511	
4	0	0	0	0	545	513	
5	0	0	0	0	461	512	
6	0	0	0	0	254	511	
7	0	0	0	0	391	513	
8	0	0	0	0	489	514	
9	0	0	0	0	517	513	
10	0	0	0	0	520	513	
11	0	0	0	0	515	513	
12	0	0	0	0	511	516	
13	0	0	0	0	503	514	
14	0	0	0	0	517	513	
15	0	0	0	0	515	515	
0	0	0	0	0	520	511	
1	0	0	0	0	513	513	
2	0	0	0	0	523	508	
3	0	0	0	0	522	509	
4	0	0	0	0	572	513	
5	0	0	0	0	564	509	
6	0	0	0	0	545	509	
7	0	0	0	0	524	509	
8	0	0	0	0	518	508	
9	0	0	0	0	511	508	
10	0	0	0	0	382	512	
11	0	0	0	0	389	514	
12	0	0	0	0	477	512	
13	0	0	0	0	500	511	
14	0	0	0	0	506	511	
15	0	0	0	0	510	513	
0	0	0	0	0	516	513	
1	0	0	0	0	540	512	
2	0	0	0	0	539	513	
3	0	0	0	0	503	515	
4	0	0	0	0	505	515	
5	0	0	0	0	518	514	
6	0	0	0	0	517	511	
7	0	0	0	0	495	512	
8	0	0	0	0	496	514	
9	0	0	0	0	503	519	
10	0	0	0	0	516	516	
11	0	0	0	0	558	514	
12	0	0	0	0	582	512	
13	0	0	0	0	560	511	
14	0	0	0	0	551	513	
15	0	0	0	0	525	514	
0	0	0	0	0	412	509	
1	0	0	0	0	346	508	
2	0	0	0	0	444	511	
3	0	0	0	0	446	515	
4	0	0	0	0	497	513	
5	0	0	0	0	512	512	
6	0	0	0	0	574	510	
7	0	0	0	0	585	507	
8	0	0	0	0	548	508	
9	0	0	0	0	505	510	
10	0	0	0	0	494	512	
11	0	0	0	0	469	514	
12	0	0	0	0	454	512	
13	0	0	0	0	488	513	
14	0	0	0	0	515	511	
15	0	0	0	0	514	513	
0	0	0	0	0	504	515	
1	0	0	0	0	476	514	
2	0	0	0	0	472	513	
3	0	0	0	0	521	512	
4	0	0	0	0	554	512	
5	0	0	0	0	544	512	
6	0	0	0	0	483	507	
7	0	0	0	0	467	516	
8	0	0	0	0	498	511	
9	0	0	0	0	514	509	
10	0	0	0	0	483	508	
11	0	0	0	0	512	508	
12	0	0	0	0	508	510	
13	0	0	0	0	527	510	
14	0	0	0	0	535	513	
15	0	0	0	0	520	513	
0	0	0	0	0	511	513	
1	0	0	0	0	528	513	
2	0	0	0	0	551	513	
3	0	0	0	0	541	512	
4	0	0	0	0	485	513	
5	0	0	0	0	409	511	
6	0	0	0	0	501	513	
7	0	0	0	0	547	507	
8	0	0	0	0	572	505	
9	0	0	0	0	537	502	
10	0	0	0	0	469	503	
11	0	0	0	0	406	511	
12	0	0	0	0	484	518	
13	0	0	0	0	529	519	
14	0	0	0	0	509	516	
15	0	0	0	0	503	513	
0	0	0	0	0	516	511	
1	0	0	0	0	554	508	
2	0	0	0	0	519	510	
3	0	0	0	0	431	511	
4	0	0	0	0	496	512	
5	0	0	0	0	539	511	
6	0	0	0	0	522	510	
7	0	0	0	0	472	518	
8	0	0	0	0	393	520	
9	0	0	0	0	490	517	
10	0	0	0	0	524	512	
11	0	0	0	0	513	508	
12	0	0	0	0	512	507	
13	0	0	0	0	526	513	
14	0	0	0	0	543	514	
15	0	0	0	0	550	514	
0	0	0	0	0	542	514	
1	0	0	0	0	531	515	
2	0	0	0	0	551	515	
3	0	0	0	0	540	512	
4	0	0	0	0	495	507	
5	0	0	0	0	423	505	
6	0	0	0	0	487	510	
7	0	0	0	0	515	508	
8	0	0	0	0	473	513	
9	0	0	0	0	411	513	
10	0	0	0	0	425	516	
11	0	0	0	0	501	515	
12	0	0	0	0	506	512	
13	0	0	0	0	515	510	
14	0	0	0	0	525	508	
15	0	0	0	0	527	512	
0	0	0	0	0	526	512	
1	0	0	0	0	520	513	
2	0	0	0	0	531	512	
3	0	0	0	0	535	513	
4	0	0	0	0	528	512	
5	0	0	0	0	513	514	
6	0	0	0	0	513	515	
7	0	0	0	0	519	512	
8	0	0	0	0	450	510	
9	0	0	0	0	463	510	
10	0	0	0	0	505	508	
11	0	0	0	0	521	509	
12	0	0	0	0	519	510	
13	0	0	0	0	514	514	
14	0	0	0	0	507	515	
15	0	0	0	0	492	511	
0	0	0	0	0	496	512	
1	0	0	0	0	497	508	
2	0	0	0	0	505	507	
3	0	0	0	0	543	508	
4	0	0	0	0	558	513	
5	0	0	0	0	542	517	
6	0	0	0	0	538	516	
7	0	0	0	0	518	511	
8	0	0	0	0	515	511	
9	0	0	0	0	494	511	
10	0	0	0	0	440	512	
11	0	0	0	0	424	514	
12	0	0	0	0	476	513	
13	0	0	0	0	497	512	
14	0	0	0	0	508	518	
15	0	0	0	0	504	515	
0	0	0	0	0	514	510	
1	0	0	0	0	537	505	
2	0	0	0	0	538	504	
3	0	0	0	0	526	510	
4	0	0	0	0	498	513	
5	0	0	0	0	476	512	
6	0	0	0	0	473	515	
7	0	0	0	0	499	516	
8	0	0	0	0	497	513	
9	0	0	0	0	504	513	
10	0	0	0	0	547	516	
11	0	0	0	0	579	510	
12	0	0	0	0	581	511	
13	0	0	0	0	493	513	
14	0	0	0	0	512	512	
15	0	0	0	0	491	513	
0	0	0	0	0	494	511	
1	0	0	0	0	494	511	
2	0	0	0	0	432	508	
3	0	0	0	0	359	508	
4	0	0	0	0	466	509	
5	0	0	0	0	529	511	
6	0	0	0	0	542	510	
7	0	0	0	0	572	509	
8	0	0	0	0	601	512	
9	0	0	0	0	562	513	
10	0	0	0	0	414	515	
11	0	0	0	0	458	514	
12	0	0	0	0	526	516	
13	0	0	0	0	552	515	
14	0	0	0	0	464	513	
15	0	0	0	0	399	510	
0	0	0	0	0	497	505	
1	0	0	0	0	505	501	
2	0	0	0	0	467	505	
3	0	0	0	0	509	509	
4	0	0	0	0	512	513	
5	0	0	0	0	511	515	
6	0	0	0	0	534	516	
7	0	0	0	0	548	515	
8	0	0	0	0	537	511	
9	0	0	0	0	521	511	
10	0	0	0	0	519	510	
11	0	0	0	0	521	508	
12	0	0	0	0	518	506	
13	0	0	0	0	467	511	
14	0	0	0	0	479	508	
15	0	0	0	0	526	510	
0	0	0	0	0	531	513	
1	0	0	0	0	519	511	
2	0	0	0	0	487	514	
3	0	0	0	0	463	514	
4	0	0	0	0	496	516	
5	0	0	0	0	486	510	
6	0	0	0	0	481	510	
7	0	0	0	0	509	509	
8	0	0	0	0	529	510	
9	0	0	0	0	525	514	
10	0	0	0	0	518	516	
11	0	0	0	0	511	512	
12	0	0	0	0	507	515	
13	0	0	0	0	506	513	
14	0	0	0	0	514	512	
15	0	0	0	0	515	513	
0	0	0	0	0	520	512	
1	0	0	0	0	515	511	
2	0	0	0	0	527	513	
3	0	0	0	0	527	513	
4	0	0	0	0	480	513	
5	0	0	0	0	440	517	
6	0	0	0	0	485	519	
7	0	0	0	0	523	515	
8	0	0	0	0	493	511	
9	0	0	0	0	531	508	
10	0	0	0	0	548	506	
11	0	0	0	0	559	508	
12	0	0	0	0	531	510	
13	0	0	0	0	440	511	
14	0	0	0	0	419	511	
15	0	0	0	0	457	514	
0	0	0	0	0	507	512	
1	0	0	0	0	513	514	
2	0	0	0	0	497	515	
3	0	0	0	0	510	513	
4	0	0	0	0	523	515	
5	0	0	0	0	518	513	
6	0	0	0	0	513	514	
7	0	0	0	0	511	512	
8	0	0	0	0	508	512	
9	0	0	0	0	505	512	
10	0	0	0	0	502	515	
11	0	0	0	0	511	512	
12	0	0	0	0	510	512	
13	0	0	0	0	503	513	
14	0	0	0	0	502	513	
15	0	0	0	0	503	515	
0	0	0	0	0	510	515	
1	0	0	0	0	532	509	
2	0	0	0	0	536	510	
3	0	0	0	0	540	513	
4	0	0	0	0	581	519	
5	0	0	0	0	615	515	
6	0	0	0	0	554	505	
7	0	0	0	0	414	500	
8	0	0	0	0	352	504	
9	0	0	0	0	412	508	
10	0	0	0	0	467	516	
11	0	0	0	0	494	516	
12	0	0	0	0	494	512	
13	0	0	0	0	562	511	
14	0	0	0	0	548	513	
15	0	0	0	0	532	511	
0	0	0	0	0	478	511	
1	0	0	0	0	377	512	
2	0	0	0	0	463	513	
3	0	0	0	0	531	514	
4	0	0	0	0	537	516	
5	0	0	0	0	523	517	
6	0	0	0	0	531	512	
7	0	0	0	0	543	509	
8	0	0	0	0	497	506	
9	0	0	0	0	461	508	
10	0	0	0	0	492	511	
11	0	0	0	0	539	513	
12	0	0	0	0	541	510	
13	0	0	0	0	528	507	
14	0	0	0	0	516	507	
15	0	0	0	0	493	508	
0	0	0	0	0	481	511	
1	0	0	0	0	479	513	
2	0	0	0	0	503	513	
3	0	0	0	0	523	517	
4	0	0	0	0	533	515	
5	0	0	0	0	553	511	
6	0	0	0	0	572	507	
7	0	0	0	0	538	506	
8	0	0	0	0	452	505	
9	0	0	0	0	428	510	
10	0	0	0	0	415	515	
11	0	0	0	0	473	515	
12	0	0	0	0	513	510	
13	0	0	0	0	520	508	
14	0	0	0	0	521	508	
15	0	0	0	0	525	511	
0	0	0	0	0	521	509	
1	0	0	0	0	534	512	
2	0	0	0	0	540	512	
3	0	0	0	0	536	516	
4	0	0	0	0	547	518	
5	0	0	0	0	504	516	
6	0	0	0	0	465	517	
7	0	0	0	0	417	516	
8	0	0	0	0	451	511	
9	0	0	0	0	536	508	
10	0	0	0	0	564	506	
11	0	0	0	0	587	508	
12	0	0	0	0	576	512	
13	0	0	0	0	523	513	
14	0	0	0	0	353	514	
15	0	0	0	0	409	513	
0	0	0	0	0	512	513	
1	0	0	0	0	528	516	
2	0	0	0	0	511	515	
3	0	0	0	0	504	515	
4	0	0	0	0	543	513	
5	0	0	0	0	467	512	
6	0	0	0	0	497	515	
7	0	0	0	0	530	515	
8	0	0	0	0	528	509	
9	0	0	0	0	484	511	
10	0	0	0	0	467	515	
11	0	0	0	0	460	510	
12	0	0	0	0	467	510	
13	0	0	0	0	504	509	
14	0	0	0	0	519	512	
15	0	0	0	0	520	514	
0	0	0	0	0	517	515	
1	0	0	0	0	519	516	
2	0	0	0	0	519	511	
3	0	0	0	0	512	512	
4	0	0	0	0	499	508	
5	0	0	0	0	496	510	
6	0	0	0	0	543	515	
7	0	0	0	0	574	519	
8	0	0	0	0	598	519	
9	0	0	0	0	620	518	
10	0	0	0	0	599	515	
11	0	0	0	0	560	511	
12	0	0	0	0	553	505	
13	0	0	0	0	372	505	
14	0	0	0	0	215	509	
15	0	0	0	0	349	521	
0	0	0	0	0	499	519	
1	0	0	0	0	512	515	
2	0	0	0	0	509	508	
3	0	0	0	0	521	504	
4	0	0	0	0	523	499	
5	0	0	0	0	499	504	
6	0	0	0	0	495	513	
7	0	0	0	0	506	509	
8	0	0	0	0	503	512	
9	0	0	0	0	492	510	
10	0	0	0	0	527	511	
11	0	0	0	0	552	508	
12	0	0	0	0	550	512	
13	0	0	0	0	512	515	
14	0	0	0	0	487	517	
15	0	0	0	0	519	515	
0	0	0	0	0	511	512	
1	0	0	0	0	491	514	
2	0	0	0	0	503	516	
3	0	0	0	0	508	515	
4	0	0	0	0	495	517	
5	0	0	0	0	515	515	
6	0	0	0	0	531	512	
7	0	0	0	0	573	509	
8	0	0	0	0	555	505	
9	0	0	0	0	512	509	
10	0	0	0	0	475	510	
11	0	0	0	0	464	509	
12	0	0	0	0	463	512	
13	0	0	0	0	461	511	
14	0	0	0	0	497	512	
15	0	0	0	0	518	511	
0	0	0	0	0	503	507	
1	0	0	0	0	459	507	
2	0	0	0	0	480	509	
3	0	0	0	0	492	510	
4	0	0	0	0	505	512	
5	0	0	0	0	508	512	
6	0	0	0	0	511	512	
7	0	0	0	0	516	510	
8	0	0	0	0	522	511	
9	0	0	0	0	536	515	
10	0	0	0	0	585	515	
11	0	0	0	0	577	512	
12	0	0	0	0	566	512	
13	0	0	0	0	560	511	
14	0	0	0	0	550	511	
15	0	0	0	0	463	510	
0	0	0	0	0	409	503	
1	0	0	0	0	416	506	
2	0	0	0	0	372	515	
3	0	0	0	0	451	515	
4	0	0	0	0	517	516	
5	0	0	0	0	531	513	
6	0	0	0	0	549	513	
7	0	0	0	0	579	514	
8	0	0	0	0	531	513	
9	0	0	0	0	517	513	
10	0	0	0	0	559	511	
11	0	0	0	0	494	511	
12	0	0	0	0	408	511	
13	0	0	0	0	462	515	
14	0	0	0	0	571	514	
15	0	0	0	0	598	511	
0	0	0	0	0	548	508	
1	0	0	0	0	399	509	
2	0	0	0	0	350	511	
3	0	0	0	0	427	511	
4	0	0	0	0	514	515	
5	0	0	0	0	537	511	
6	0	0	0	0	533	512	
7	0	0	0	0	529	512	
8	0	0	0	0	524	515	
9	0	0	0	0	506	513	
10	0	0	0	0	499	514	
11	0	0	0	0	517	515	
12	0	0	0	0	524	516	
13	0	0	0	0	524	514	
14	0	0	0	0	519	513	
15	0	0	0	0	508	509	
0	0	0	0	0	508	510	
1	0	0	0	0	517	510	
2	0	0	0	0	524	513	
3	0	0	0	0	519	512	
4	0	0	0	0	518	513	
5	0	0	0	0	512	512	
6	0	0	0	0	511	514	
7	0	0	0	0	517	517	
8	0	0	0	0	523	517	
9	0	0	0	0	463	516	
10	0	0	0	0	487	510	
11	0	0	0	0	529	507	
12	0	0	0	0	538	510	
13	0	0	0	0	504	509	
14	0	0	0	0	457	510	
15	0	0	0	0	449	511	
0	0	0	0	0	506	517	
1	0	0	0	0	533	517	
2	0	0	0	0	497	514	
3	0	0	0	0	476	514	
4	0	0	0	0	524	509	
5	0	0	0	0	531	513	
6	0	0	0	0	541	511	
7	0	0	0	0	534	513	
8	0	0	0	0	504	515	
9	0	0	0	0	483	515	
10	0	0	0	0	448	508	
11	0	0	0	0	391	504	
12	0	0	0	0	528	510	
13	0	0	0	0	568	513	
14	0	0	0	0	584	510	
15	0	0	0	0	573	511	
0	0	0	0	0	542	508	
1	0	0	0	0	523	501	
2	0	0	0	0	490	504	
3	0	0	0	0	459	505	
4	0	0	0	0	434	509	
5	0	0	0	0	457	515	
6	0	0	0	0	582	515	
7	0	0	0	0	567	515	
8	0	0	0	0	419	517	
9	0	0	0	0	327	512	
10	0	0	0	0	471	513	
11	0	0	0	0	498	514	
12	0	0	0	0	465	508	
13	0	0	0	0	585	506	
14	0	0	0	0	662	509	
15	0	0	0	0	642	511	
0	0	0	0	0	569	510	
1	0	0	0	0	463	514	
2	0	0	0	0	423	517	
3	0	0	0	0	415	508	
4	0	0	0	0	444	508	
5	0	0	0	0	499	515	
6	0	0	0	0	455	513	
7	0	0	0	0	496	510	
8	0	0	0	0	455	509	
9	0	0	0	0	511	512	
10	0	0	0	0	558	514	
11	0	0	0	0	579	513	
12	0	0	0	0	567	512	
13	0	0	0	0	511	512	
14	0	0	0	0	417	511	
15	0	0	0	0	438	510	
0	0	0	0	0	457	512	
1	0	0	0	0	489	515	
2	0	0	0	0	512	513	
3	0	0	0	0	518	514	
4	0	0	0	0	543	513	
5	0	0	0	0	554	515	
6	0	0	0	0	556	507	
7	0	0	0	0	529	506	
8	0	0	0	0	508	507	
9	0	0	0	0	522	512	
10	0	0	0	0	547	520	
11	0	0	0	0	516	519	
12	0	0	0	0	511	515	
13	0	0	0	0	540	514	
14	0	0	0	0	535	512	
15	0	0	0	0	507	508	
0	0	0	0	0	467	515	
1	0	0	0	0	487	517	
2	0	0	0	0	558	515	
3	0	0	0	0	507	512	
4	0	0	0	0	375	508	
5	0	0	0	0	418	507	
6	0	0	0	0	495	507	
7	0	0	0	0	467	505	
8	0	0	0	0	469	505	
9	0	0	0	0	495	515	
10	0	0	0	0	527	519	
11	0	0	0	0	532	519	
12	0	0	0	0	531	516	
13	0	0	0	0	532	513	
14	0	0	0	0	534	512	
15	0	0	0	0	511	508	
0	0	0	0	0	514	511	
1	0	0	0	0	515	514	
2	0	0	0	0	504	516	
3	0	0	0	0	473	518	
4	0	0	0	0	511	517	
5	0	0	0	0	519	512	
6	0	0	0	0	512	513	
7	0	0	0	0	511	518	
8	0	0	0	0	485	527	
9	0	0	0	0	543	521	
10	0	0	0	0	669	514	
11	0	0	0	0	665	506	
12	0	0	0	0	532	505	
13	0	0	0	0	443	500	
14	0	0	0	0	401	496	
15	0	0	0	0	358	496	
0	0	0	0	0	356	504	
1	0	0	0	0	440	513	
2	0	0	0	0	596	514	
3	0	0	0	0	594	512	
4	0	0	0	0	556	509	
5	0	0	0	0	529	504	
6	0	0	0	0	498	510	
7	0	0	0	0	404	514	
8	0	0	0	0	438	515	
9	0	0	0	0	535	521	
10	0	0	0	0	644	518	
11	0	0	0	0	613	517	
12	0	0	0	0	482	512	
13	0	0	0	0	371	505	
14	0	0	0	0	453	502	
15	0	0	0	0	543	501	
0	0	0	0	0	427	505	
1	0	0	0	0	486	513	
2	0	0	0	0	519	515	
3	0	0	0	0	437	512	
4	0	0	0	0	518	515	
5	0	0	0	0	561	515	
6	0	0	0	0	552	520	
7	0	0	0	0	458	523	
8	0	0	0	0	490	513	
9	0	0	0	0	531	510	
10	0	0	0	0	451	504	
11	0	0	0	0	425	503	
12	0	0	0	0	487	508	
13	0	0	0	0	506	511	
14	0	0	0	0	499	512	
15	0	0	0	0	520	515	
0	0	0	0	0	544	515	
1	0	0	0	0	511	515	
2	0	0	0	0	527	515	
3	0	0	0	0	530	516	
4	0	0	0	0	534	514	
5	0	0	0	0	541	509	
6	0	0	0	0	515	507	
7	0	0	0	0	568	510	
8	0	0	0	0	513	513	
9	0	0	0	0	487	505	
10	0	0	0	0	471	513	
11	0	0	0	0	502	515	
12	0	0	0	0	530	515	
13	0	0	0	0	502	511	
14	0	0	0	0	488	511	
15	0	0	0	0	494	511	
0	0	0	0	0	533	513	
1	0	0	0	0	543	514	
2	0	0	0	0	534	515	
3	0	0	0	0	556	516	
4	0	0	0	0	575	513	
5	0	0	0	0	495	508	
6	0	0	0	0	361	509	
7	0	0	0	0	396	517	
8	0	0	0	0	454	524	
9	0	0	0	0	467	517	
10	0	0	0	0	540	515	
11	0	0	0	0	626	511	
12	0	0	0	0	644	514	
13	0	0	0	0	646	512	
14	0	0	0	0	515	500	
15	0	0	0	0	414	502	
0	0	0	0	0	439	505	
1	0	0	0	0	350	517	
2	0	0	0	0	382	518	
3	0	0	0	0	418	515	
4	0	0	0	0	542	512	
5	0	0	0	0	547	507	
6	0	0	0	0	521	505	
7	0	0	0	0	583	510	
8	0	0	0	0	599	516	
9	0	0	0	0	562	520	
10	0	0	0	0	586	519	
11	0	0	0	0	555	514	
12	0	0	0	0	441	507	
13	0	0	0	0	427	511	
14	0	0	0	0	435	518	
15	0	0	0	0	467	516	
0	0	0	0	0	341	511	
1	0	0	0	0	423	515	
2	0	0	0	0	510	512	
3	0	0	0	0	519	511	
4	0	0	0	0	523	512	
5	0	0	0	0	520	510	
6	0	0	0	0	550	508	
7	0	0	0	0	557	511	
8	0	0	0	0	516	512	
9	0	0	0	0	496	510	
10	0	0	0	0	514	509	
11	0	0	0	0	519	510	
12	0	0	0	0	481	507	
13	0	0	0	0	505	513	
14	0	0	0	0	540	515	
15	0	0	0	0	512	521	
0	0	0	0	0	494	513	
1	0	0	0	0	518	510	
2	0	0	0	0	593	509	
3	0	0	0	0	569	513	
4	0	0	0	0	590	511	
5	0	0	0	0	548	508	
6	0	0	0	0	556	505	
7	0	0	0	0	415	505	
8	0	0	0	0	464	502	
9	0	0	0	0	522	499	
10	0	0	0	0	508	499	
11	0	0	0	0	497	510	
12	0	0	0	0	507	518	
13	0	0	0	0	583	518	
14	0	0	0	0	518	518	
15	0	0	0	0	510	519	
0	0	0	0	0	599	519	
1	0	0	0	0	353	521	
2	0	0	0	0	328	520	
3	0	0	0	0	450	507	
4	0	0	0	0	514	504	
5	0	0	0	0	425	507	
6	0	0	0	0	423	508	
7	0	0	0	0	444	507	
8	0	0	0	0	581	508	
9	0	0	0	0	624	510	
10	0	0	0	0	556	511	
11	0	0	0	0	470	511	
12	0	0	0	0	442	511	
13	0	0	0	0	528	508	
14	0	0	0	0	595	510	
15	0	0	0	0	510	516	
0	0	0	0	0	428	515	
1	0	0	0	0	408	513	
2	0	0	0	0	454	513	
3	0	0	0	0	488	512	
4	0	0	0	0	552	516	
5	0	0	0	0	606	516	
6	0	0	0	0	616	516	
7	0	0	0	0	577	512	
8	0	0	0	0	457	510	
9	0	0	0	0	548	511	
10	0	0	0	0	465	513	
11	0	0	0	0	501	510	
12	0	0	0	0	493	509	
13	0	0	0	0	492	504	
14	0	0	0	0	445	507	
15	0	0	0	0	473	511	
0	0	0	0	0	527	519	
1	0	0	0	0	508	518	
2	0	0	0	0	481	520	
3	0	0	0	0	551	516	
4	0	0	0	0	560	515	
5	0	0	0	0	513	515	
6	0	0	0	0	508	516	
7	0	0	0	0	467	516	
8	0	0	0	0	511	510	
9	0	0	0	0	574	503	
10	0	0	0	0	529	496	
11	0	0	0	0	503	498	
12	0	0	0	0	583	507	
13	0	0	0	0	529	513	
14	0	0	0	0	336	514	
15	0	0	0	0	419	512	
0	0	0	0	0	511	513	
1	0	0	0	0	492	512	
2	0	0	0	0	403	515	
3	0	0	0	0	497	515	
4	0	0	0	0	552	517	
5	0	0	0	0	505	516	
6	0	0	0	0	558	521	
7	0	0	0	0	587	519	
8	0	0	0	0	588	512	
9	0	0	0	0	538	512	
10	0	0	0	0	609	511	
11	0	0	0	0	627	505	
12	0	0	0	0	619	505	
13	0	0	0	0	611	508	
14	0	0	0	0	391	510	
15	0	0	0	0	225	512	
0	0	0	0	0	374	512	
1	0	0	0	0	404	518	
2	0	0	0	0	427	517	
3	0	0	0	0	488	514	
4	0	0	0	0	401	512	
5	0	0	0	0	407	514	
6	0	0	0	0	473	507	
7	0	0	0	0	564	507	
8	0	0	0	0	584	513	
9	0	0	0	0	557	513	
10	0	0	0	0	540	519	
11	0	0	0	0	531	520	
12	0	0	0	0	540	514	
13	0	0	0	0	510	511	
14	0	0	0	0	491	510	
15	0	0	0	0	537	507	
0	0	0	0	0	507	499	
1	0	0	0	0	536	507	
2	0	0	0	0	551	507	
3	0	0	0	0	565	513	
4	0	0	0	0	430	514	
5	0	0	0	0	497	512	
6	0	0	0	0	553	512	
7	0	0	0	0	551	515	
8	0	0	0	0	547	513	
9	0	0	0	0	514	512	
10	0	0	0	0	419	517	
11	0	0	0	0	489	519	
12	0	0	0	0	541	511	
13	0	0	0	0	535	510	
14	0	0	0	0	554	509	
15	0	0	0	0	530	504	
0	0	0	0	0	441	503	
1	0	0	0	0	451	517	
2	0	0	0	0	449	515	
3	0	0	0	0	516	513	
4	0	0	0	0	549	518	
5	0	0	0	0	608	508	
6	0	0	0	0	579	508	
7	0	0	0	0	467	508	
8	0	0	0	0	536	507	
9	0	0	0	0	525	508	
10	0	0	0	0	387	515	
11	0	0	0	0	406	518	
12	0	0	0	0	373	522	
13	0	0	0	0	457	523	
14	0	0	0	0	540	515	
15	0	0	0	0	599	504	
0	0	0	0	0	488	496	
1	0	0	0	0	372	499	
2	0	0	0	0	472	504	
3	0	0	0	0	508	511	
4	0	0	0	0	512	515	
5	0	0	0	0	548	519	
6	0	0	0	0	559	521	
7	0	0	0	0	577	527	
8	0	0	0	0	627	527	
9	0	0	0	0	609	511	
10	0	0	0	0	556	499	
11	0	0	0	0	491	498	
12	0	0	0	0	379	502	
13	0	0	0	0	363	509	
14	0	0	0	0	477	512	
15	0	0	0	0	500	514	
0	0	0	0	0	511	513	
1	0	0	0	0	519	515	
2	0	0	0	0	515	515	
3	0	0	0	0	449	514	
4	0	0	0	0	481	514	
5	0	0	0	0	522	512	
6	0	0	0	0	548	512	
7	0	0	0	0	550	513	
8	0	0	0	0	555	519	
9	0	0	0	0	557	514	
10	0	0	0	0	555	516	
11	0	0	0	0	513	512	
12	0	0	0	0	448	500	
13	0	0	0	0	465	498	
14	0	0	0	0	491	504	
15	0	0	0	0	515	511	
0	0	0	0	0	489	513	
1	0	0	0	0	477	515	
2	0	0	0	0	533	515	
3	0	0	0	0	511	516	
4	0	0	0	0	492	519	
5	0	0	0	0	469	519	
6	0	0	0	0	441	513	
7	0	0	0	0	506	513	
8	0	0	0	0	548	510	
9	0	0	0	0	460	505	
10	0	0	0	0	579	507	
11	0	0	0	0	643	500	
12	0	0	0	0	490	502	
13	0	0	0	0	531	511	
14	0	0	0	0	474	517	
15	0	0	0	0	456	520	
0	0	0	0	0	508	515	
1	0	0	0	0	423	506	
2	0	0	0	0	493	508	
3	0	0	0	0	447	508	
4	0	0	0	0	535	514	
5	0	0	0	0	595	516	
6	0	0	0	0	681	521	
7	0	0	0	0	706	530	
8	0	0	0	0	588	518	
9	0	0	0	0	388	516	
10	0	0	0	0	380	509	
11	0	0	0	0	359	505	
12	0	0	0	0	457	510	
13	0	0	0	0	512	502	
14	0	0	0	0	427	494	
15	0	0	0	0	440	495	
0	0	0	0	0	515	497	
1	0	0	0	0	414	505	
2	0	0	0	0	419	509	
3	0	0	0	0	564	515	
4	0	0	0	0	617	519	
5	0	0	0	0	615	524	
6	0	0	0	0	603	518	
7	0	0	0	0	407	512	
8	0	0	0	0	314	513	
9	0	0	0	0	368	515	
10	0	0	0	0	494	512	
11	0	0	0	0	551	508	
12	0	0	0	0	583	510	
13	0	0	0	0	567	514	
14	0	0	0	0	538	514	
15	0	0	0	0	545	519	
0	0	0	0	0	558	516	
1	0	0	0	0	491	514	
2	0	0	0	0	507	510	
3	0	0	0	0	516	508	
4	0	0	0	0	460	502	
5	0	0	0	0	488	504	
6	0	0	0	0	548	508	
7	0	0	0	0	519	512	
8	0	0	0	0	394	514	
9	0	0	0	0	447	515	
10	0	0	0	0	518	513	
11	0	0	0	0	564	515	
12	0	0	0	0	561	513	
13	0	0	0	0	525	515	
14	0	0	0	0	513	519	
15	0	0	0	0	545	515	
0	0	0	0	0	545	512	
1	0	0	0	0	523	512	
2	0	0	0	0	507	514	
3	0	0	0	0	501	511	
4	0	0	0	0	417	512	
5	0	0	0	0	399	514	
6	0	0	0	0	510	518	
7	0	0	0	0	563	515	
8	0	0	0	0	559	510	
9	0	0	0	0	498	505	
10	0	0	0	0	520	503	
11	0	0	0	0	543	505	
12	0	0	0	0	530	505	
13	0	0	0	0	529	513	
14	0	0	0	0	525	516	
15	0	0	0	0	522	515	
0	0	0	0	0	574	517	
1	0	0	0	0	564	513	
2	0	0	0	0	536	510	
3	0	0	0	0	412	518	
4	0	0	0	0	440	518	
5	0	0	0	0	365	514	
6	0	0	0	0	486	510	
7	0	0	0	0	448	514	
8	0	0	0	0	430	515	
9	0	0	0	0	504	516	
10	0	0	0	0	479	514	
11	0	0	0	0	526	504	
12	0	0	0	0	568	502	
13	0	0	0	0	598	508	
14	0	0	0	0	579	512	
15	0	0	0	0	445	515	
0	0	0	0	0	394	519	
1	0	0	0	0	485	517	
2	0	0	0	0	595	521	
3	0	0	0	0	641	518	
4	0	0	0	0	703	514	
5	0	0	0	0	622	510	
6	0	0	0	0	470	504	
7	0	0	0	0	212	497	
8	0	0	0	0	272	503	
9	0	0	0	0	408	503	
10	0	0	0	0	523	507	
11	0	0	0	0	584	512	
12	0	0	0	0	583	518	
13	0	0	0	0	517	518	
14	0	0	0	0	472	516	
15	0	0	0	0	496	516	
0	0	0	0	0	498	516	
1	0	0	0	0	540	518	
2	0	0	0	0	624	520	
3	0	0	0	0	689	522	
4	0	0	0	0	659	515	
5	0	0	0	0	550	508	
6	0	0	0	0	489	505	
7	0	0	0	0	394	496	
8	0	0	0	0	341	496	
9	0	0	0	0	217	508	
10	0	0	0	0	219	507	
11	0	0	0	0	449	511	
12	0	0	0	0	570	518	
13	0	0	0	0	640	520	
14	0	0	0	0	636	507	
15	0	0	0	0	606	509	
0	0	0	0	0	542	506	
1	0	0	0	0	476	499	
2	0	0	0	0	519	502	
3	0	0	0	0	478	508	
4	0	0	0	0	436	515	
5	0	0	0	0	524	516	
6	0	0	0	0	553	516	
7	0	0	0	0	540	514	
8	0	0	0	0	513	513	
9	0	0	0	0	460	512	
10	0	0	0	0	473	517	
11	0	0	0	0	510	517	
12	0	0	0	0	519	513	
13	0	0	0	0	518	514	
14	0	0	0	0	523	517	
15	0	0	0	0	547	517	
0	0	0	0	0	545	513	
1	0	0	0	0	579	513	
2	0	0	0	0	564	511	
3	0	0	0	0	533	513	
4	0	0	0	0	432	514	
5	0	0	0	0	502	512	
6	0	0	0	0	574	511	
7	0	0	0	0	516	509	
8	0	0	0	0	403	510	
9	0	0	0	0	443	508	
10	0	0	0	0	447	513	
11	0	0	0	0	471	515	
12	0	0	0	0	464	515	
13	0	0	0	0	523	516	
14	0	0	0	0	517	509	
15	0	0	0	0	469	513	
0	0	0	0	0	435	511	
1	0	0	0	0	494	512	
2	0	0	0	0	563	515	
3	0	0	0	0	590	520	
4	0	0	0	0	594	510	
5	0	0	0	0	545	504	
6	0	0	0	0	476	505	
7	0	0	0	0	428	507	
8	0	0	0	0	529	511	
9	0	0	0	0	583	514	
10	0	0	0	0	571	512	
11	0	0	0	0	527	512	
12	0	0	0	0	413	512	
13	0	0	0	0	316	512	
14	0	0	0	0	399	514	
15	0	0	0	0	479	515	
0	0	0	0	0	517	516	
1	0	0	0	0	551	510	
2	0	0	0	0	585	508	
3	0	0	0	0	600	510	
4	0	0	0	0	586	515	
5	0	0	0	0	572	513	
6	0	0	0	0	486	510	
7	0	0	0	0	516	513	
8	0	0	0	0	460	509	
9	0	0	0	0	436	508	
10	0	0	0	0	456	514	
11	0	0	0	0	465	512	
12	0	0	0	0	499	513	
13	0	0	0	0	514	510	
14	0	0	0	0	539	507	
15	0	0	0	0	528	508	
0	0	0	0	0	459	509	
1	0	0	0	0	475	514	
2	0	0	0	0	499	520	
3	0	0	0	0	529	519	
4	0	0	0	0	556	516	
5	0	0	0	0	564	515	
6	0	0	0	0	623	511	
7	0	0	0	0	616	512	
8	0	0	0	0	480	507	
9	0	0	0	0	385	513	
10	0	0	0	0	355	507	
11	0	0	0	0	462	505	
12	0	0	0	0	568	511	
13	0	0	0	0	550	515	
14	0	0	0	0	555	515	
15	0	0	0	0	577	505	
0	0	0	0	0	565	504	
1	0	0	0	0	413	500	
2	0	0	0	0	455	505	
3	0	0	0	0	543	511	
4	0	0	0	0	469	510	
5	0	0	0	0	395	512	
6	0	0	0	0	401	520	
7	0	0	0	0	492	516	
8	0	0	0	0	565	513	
9	0	0	0	0	451	514	
10	0	0	0	0	427	515	
11	0	0	0	0	562	518	
12	0	0	0	0	563	508	
13	0	0	0	0	600	503	
14	0	0	0	0	601	509	
15	0	0	0	0	575	506	
0	0	0	0	0	416	507	
1	0	0	0	0	274	512	
2	0	0	0	0	393	513	
3	0	0	0	0	519	513	
4	0	0	0	0	553	516	
5	0	0	0	0	554	515	
6	0	0	0	0	564	516	
7	0	0	0	0	562	516	
8	0	0	0	0	548	516	
9	0	0	0	0	542	519	
10	0	0	0	0	532	517	
11	0	0	0	0	564	514	
12	0	0	0	0	513	505	
13	0	0	0	0	430	497	
14	0	0	0	0	384	503	
15	0	0	0	0	499	503	
0	0	0	0	0	556	509	
1	0	0	0	0	540	513	
2	0	0	0	0	525	519	
3	0	0	0	0	467	518	
4	0	0	0	0	456	518	
5	0	0	0	0	543	519	
6	0	0	0	0	582	517	
7	0	0	0	0	564	515	
8	0	0	0	0	524	508	
9	0	0	0	0	515	509	
10	0	0	0	0	359	503	
11	0	0	0	0	391	504	
12	0	0	0	0	487	508	
13	0	0	0	0	590	511	
14	0	0	0	0	588	512	
15	0	0	0	0	513	512	
0	0	0	0	0	354	513	
1	0	0	0	0	370	515	
2	0	0	0	0	455	520	
3	0	0	0	0	547	520	
4	0	0	0	0	613	516	
5	0	0	0	0	620	511	
6	0	0	0	0	551	506	
7	0	0	0	0	473	510	
8	0	0	0	0	486	514	
9	0	0	0	0	497	516	
10	0	0	0	0	616	513	
11	0	0	0	0	711	507	
12	0	0	0	0	639	510	
13	0	0	0	0	472	509	
14	0	0	0	0	433	511	
15	0	0	0	0	552	513	
0	0	0	0	0	260	518	
1	0	0	0	0	238	516	
2	0	0	0	0	404	513	
3	0	0	0	0	428	508	
4	0	0	0	0	450	513	
5	0	0	0	0	539	515	
6	0	0	0	0	590	515	
7	0	0	0	0	587	512	
8	0	0	0	0	611	510	
9	0	0	0	0	599	513	
10	0	0	0	0	579	511	
11	0	0	0	0	579	515	
12	0	0	0	0	596	519	
13	0	0	0	0	411	510	
14	0	0	0	0	431	505	
15	0	0	0	0	441	507	
0	0	0	0	0	414	509	
1	0	0	0	0	455	509	
2	0	0	0	0	539	514	
3	0	0	0	0	562	518	
4	0	0	0	0	488	513	
5	0	0	0	0	520	515	
6	0	0	0	0	487	508	
7	0	0	0	0	532	498	
8	0	0	0	0	459	502	
9	0	0	0	0	489	513	
10	0	0	0	0	570	511	
11	0	0	0	0	566	512	
12	0	0	0	0	556	514	
13	0	0	0	0	621	517	
14	0	0	0	0	608	516	
15	0	0	0	0	534	511	
0	0	0	0	0	560	507	
1	0	0	0	0	352	501	
2	0	0	0	0	231	502	
3	0	0	0	0	331	508	
4	0	0	0	0	448	508	
5	0	0	0	0	515	513	
6	0	0	0	0	511	508	
7	0	0	0	0	494	511	
8	0	0	0	0	499	515	
9	0	0	0	0	595	514	
10	0	0	0	0	629	516	
11	0	0	0	0	614	515	
12	0	0	0	0	539	515	
13	0	0	0	0	573	517	
14	0	0	0	0	388	515	
15	0	0	0	0	316	515	
0	0	0	0	0	439	515	
1	0	0	0	0	528	513	
2	0	0	0	0	578	517	
3	0	0	0	0	601	520	
4	0	0	0	0	548	517	
5	0	0	0	0	314	512	
6	0	0	0	0	432	514	
7	0	0	0	0	592	512	
8	0	0	0	0	585	505	
9	0	0	0	0	478	507	
10	0	0	0	0	480	503	
11	0	0	0	0	509	503	
12	0	0	0	0	568	507	
13	0	0	0	0	622	507	
14	0	0	0	0	568	510	
15	0	0	0	0	548	515	
0	0	0	0	0	604	517	
1	0	0	0	0	585	515	
2	0	0	0	0	319	512	
3	0	0	0	0	318	514	
4	0	0	0	0	430	512	
5	0	0	0	0	520	514	
6	0	0	0	0	480	517	
7	0	0	0	0	480	519	
8	0	0	0	0	494	519	
9	0	0	0	0	478	517	
10	0	0	0	0	555	510	
11	0	0	0	0	580	510	
12	0	0	0	0	472	511	
13	0	0	0	0	480	510	
14	0	0	0	0	495	511	
15	0	0	0	0	497	511	
0	0	0	0	0	472	511	
1	0	0	0	0	543	513	
2	0	0	0	0	563	514	
3	0	0	0	0	515	516	
4	0	0	0	0	496	513	
5	0	0	0	0	567	511	
6	0	0	0	0	488	507	
7	0	0	0	0	452	509	
8	0	0	0	0	495	508	
9	0	0	0	0	539	509	
10	0	0	0	0	560	512	
11	0	0	0	0	572	514	
12	0	0	0	0	553	509	
13	0	0	0	0	477	513	
14	0	0	0	0	526	515	
15	0	0	0	0	525	518	
0	0	0	0	0	425	523	
1	0	0	0	0	476	518	
2	0	0	0	0	471	511	
3	0	0	0	0	422	505	
4	0	0	0	0	435	508	
5	0	0	0	0	505	506	
6	0	0	0	0	537	502	
7	0	0	0	0	568	504	
8	0	0	0	0	531	509	
9	0	0	0	0	525	511	
10	0	0	0	0	591	512	
11	0	0	0	0	537	512	
12	0	0	0	0	439	512	
13	0	0	0	0	414	514	
14	0	0	0	0	511	511	
15	0	0	0	0	550	511	
0	0	0	0	0	607	512	
1	0	0	0	0	697	525	
2	0	0	0	0	681	523	
3	0	0	0	0	671	517	
4	0	0	0	0	559	508	
5	0	0	0	0	292	499	
6	0	0	0	0	92	506	
7	0	0	0	0	258	504	
8	0	0	0	0	440	503	
9	0	0	0	0	568	502	
10	0	0	0	0	536	509	
11	0	0	0	0	539	511	
12	0	0	0	0	553	513	
13	0	0	0	0	505	519	
14	0	0	0	0	570	515	
15	0	0	0	0	522	518	
0	0	0	0	0	354	519	
1	0	0	0	0	459	516	
2	0	0	0	0	506	507	
3	0	0	0	0	494	507	
4	0	0	0	0	480	506	
5	0	0	0	0	582	509	
6	0	0	0	0	628	514	
7	0	0	0	0	565	514	
8	0	0	0	0	488	513	
9	0	0	0	0	403	512	
10	0	0	0	0	393	511	
11	0	0	0	0	520	514	
12	0	0	0	0	537	516	
13	0	0	0	0	547	517	
14	0	0	0	0	561	516	
15	0	0	0	0	560	514	
0	0	0	0	0	555	506	
1	0	0	0	0	595	507	
2	0	0	0	0	560	511	
3	0	0	0	0	403	513	
4	0	0	0	0	457	515	
5	0	0	0	0	525	512	
6	0	0	0	0	443	511	
7	0	0	0	0	496	507	
8	0	0	0	0	534	507	
9	0	0	0	0	496	511	
10	0	0	0	0	408	515	
11	0	0	0	0	494	517	
12	0	0	0	0	596	519	
13	0	0	0	0	601	519	
14	0	0	0	0	481	510	
15	0	0	0	0	455	510	
0	0	0	0	0	465	513	
1	0	0	0	0	539	513	
2	0	0	0	0	525	502	
3	0	0	0	0	453	502	
4	0	0	0	0	432	505	
5	0	0	0	0	498	511	
6	0	0	0	0	564	513	
7	0	0	0	0	577	514	
8	0	0	0	0	515	517	
9	0	0	0	0	430	519	
10	0	0	0	0	526	521	
11	0	0	0	0	570	517	
12	0	0	0	0	577	511	
13	0	0	0	0	404	511	
14	0	0	0	0	402	514	
15	0	0	0	0	519	512	
0	0	0	0	0	655	506	
1	0	0	0	0	667	514	
2	0	0	0	0	636	517	
3	0	0	0	0	657	516	
4	0	0	0	0	605	512	
5	0	0	0	0	376	511	
6	0	0	0	0	364	510	
7	0	0	0	0	333	508	
8	0	0	0	0	446	506	
9	0	0	0	0	425	507	
10	0	0	0	0	471	508	
11	0	0	0	0	478	507	
12	0	0	0	0	513	516	
13	0	0	0	0	621	516	
14	0	0	0	0	494	506	
15	0	0	0	0	335	503	
0	0	0	0	0	245	504	
1	0	0	0	0	410	505	
2	0	0	0	0	570	512	
3	0	0	0	0	586	513	
4	0	0	0	0	487	513	
5	0	0	0	0	420	510	
6	0	0	0	0	503	515	
7	0	0	0	0	532	523	
8	0	0	0	0	563	520	
9	0	0	0	0	566	513	
10	0	0	0	0	568	507	
11	0	0	0	0	583	510	
12	0	0	0	0	604	510	
13	0	0	0	0	627	508	
14	0	0	0	0	606	514	
15	0	0	0	0	496	517	
0	0	0	0	0	374	513	
1	0	0	0	0	378	509	
2	0	0	0	0	518	509	
3	0	0	0	0	507	512	
4	0	0	0	0	474	515	
5	0	0	0	0	506	512	
6	0	0	0	0	465	511	
7	0	0	0	0	483	515	
8	0	0	0	0	535	513	
9	0	0	0	0	569	516	
10	0	0	0	0	577	519	
11	0	0	0	0	552	507	
12	0	0	0	0	521	506	
13	0	0	0	0	472	502	
14	0	0	0	0	465	509	
15	0	0	0	0	536	514	
0	0	0	0	0	585	516	
1	0	0	0	0	600	516	
2	0	0	0	0	451	515	
3	0	0	0	0	294	507	
4	0	0	0	0	471	507	
5	0	0	0	0	477	514	
6	0	0	0	0	536	513	
7	0	0	0	0	553	518	
8	0	0	0	0	471	519	
9	0	0	0	0	526	520	
10	0	0	0	0	588	512	
11	0	0	0	0	582	506	
12	0	0	0	0	424	505	
13	0	0	0	0	388	510	
14	0	0	0	0	458	515	
15	0	0	0	0	498	519	
0	0	0	0	0	560	516	
1	0	0	0	0	591	512	
2	0	0	0	0	480	507	
3	0	0	0	0	424	509	
4	0	0	0	0	440	505	
5	0	0	0	0	479	511	
6	0	0	0	0	521	514	
7	0	0	0	0	525	512	
8	0	0	0	0	491	514	
9	0	0	0	0	487	516	
10	0	0	0	0	506	520	
11	0	0	0	0	537	512	
12	0	0	0	0	587	515	
13	0	0	0	0	582	513	
14	0	0	0	0	519	511	
15	0	0	0	0	494	503	
0	0	0	0	0	491	507	
1	0	0	0	0	479	513	
2	0	0	0	0	492	515	
3	0	0	0	0	512	516	
4	0	0	0	0	525	514	
5	0	0	0	0	504	510	
6	0	0	0	0	508	511	
7	0	0	0	0	519	514	
8	0	0	0	0	517	512	
9	0	0	0	0	502	514	
10	0	0	0	0	527	514	
11	0	0	0	0	538	512	
12	0	0	0	0	545	509	
13	0	0	0	0	545	508	
14	0	0	0	0	507	513	
15	0	0	0	0	431	513	
0	0	0	0	0	381	508	
1	0	0	0	0	466	505	
2	0	0	0	0	566	505	
3	0	0	0	0	564	508	
4	0	0	0	0	447	510	
5	0	0	0	0	370	513	
6	0	0	0	0	474	511	
7	0	0	0	0	548	511	
8	0	0	0	0	545	508	
9	0	0	0	0	574	512	
10	0	0	0	0	600	513	
11	0	0	0	0	535	513	
12	0	0	0	0	432	513	
13	0	0	0	0	463	519	
14	0	0	0	0	545	517	
15	0	0	0	0	560	516	
0	0	0	0	0	520	513	
1	0	0	0	0	497	511	
2	0	0	0	0	463	511	
3	0	0	0	0	599	508	
4	0	0	0	0	676	505	
5	0	0	0	0	582	504	
6	0	0	0	0	174	503	
7	0	0	0	0	237	511	
8	0	0	0	0	485	516	
9	0	0	0	0	559	517	
10	0	0	0	0	583	509	
11	0	0	0	0	552	506	
12	0	0	0	0	522	507	
13	0	0	0	0	519	508	
14	0	0	0	0	558	512	
15	0	0	0	0	470	512	
0	0	0	0	0	508	514	
1	0	0	0	0	529	517	
2	0	0	0	0	531	515	
3	0	0	0	0	460	522	
4	0	0	0	0	505	517	
5	0	0	0	0	537	511	
6	0	0	0	0	488	504	
7	0	0	0	0	482	506	
8	0	0	0	0	471	515	
9	0	0	0	0	478	516	
10	0	0	0	0	457	514	
11	0	0	0	0	499	509	
12	0	0	0	0	514	509	
13	0	0	0	0	516	511	
14	0	0	0	0	490	512	
15	0	0	0	0	486	518	
0	0	0	0	0	531	519	
1	0	0	0	0	591	516	
2	0	0	0	0	563	508	
3	0	0	0	0	494	508	
4	0	0	0	0	543	510	
5	0	0	0	0	544	513	
6	0	0	0	0	413	513	
7	0	0	0	0	408	513	
8	0	0	0	0	519	515	
9	0	0	0	0	555	513	
10	0	0	0	0	539	512	
11	0	0	0	0	511	511	
12	0	0	0	0	479	512	
13	0	0	0	0	495	512	
14	0	0	0	0	554	509	
15	0	0	0	0	576	509	
0	0	0	0	0	562	506	
1	0	0	0	0	566	511	
2	0	0	0	0	488	511	
3	0	0	0	0	301	510	
4	0	0	0	0	457	511	
5	0	0	0	0	533	516	
6	0	0	0	0	525	516	
7	0	0	0	0	514	516	
8	0	0	0	0	594	515	
9	0	0	0	0	595	512	
10	0	0	0	0	438	515	
11	0	0	0	0	376	509	
12	0	0	0	0	487	509	
13	0	0	0	0	561	503	
14	0	0	0	0	430	503	
15	0	0	0	0	451	511	
0	0	0	0	0	526	519	
1	0	0	0	0	518	517	
2	0	0	0	0	434	509	
3	0	0	0	0	521	505	
4	0	0	0	0	550	506	
5	0	0	0	0	538	509	
6	0	0	0	0	528	512	
7	0	0	0	0	504	513	
8	0	0	0	0	499	513	
9	0	0	0	0	528	516	
10	0	0	0	0	541	516	
11	0	0	0	0	544	514	
12	0	0	0	0	560	513	
13	0	0	0	0	569	515	
14	0	0	0	0	440	513	
15	0	0	0	0	384	513	
0	0	0	0	0	529	511	
1	0	0	0	0	561	507	
2	0	0	0	0	550	510	
3	0	0	0	0	504	510	
4	0	0	0	0	456	510	
5	0	0	0	0	467	515	
6	0	0	0	0	401	512	
7	0	0	0	0	465	513	
8	0	0	0	0	506	510	
9	0	0	0	0	519	509	
10	0	0	0	0	540	511	
11	0	0	0	0	586	513	
12	0	0	0	0	569	511	
13	0	0	0	0	533	514	
14	0	0	0	0	532	515	
15	0	0	0	0	448	511	
0	0	0	0	0	433	513	
1	0	0	0	0	396	514	
2	0	0	0	0	436	511	
3	0	0	0	0	551	515	
4	0	0	0	0	582	515	
5	0	0	0	0	511	509	
6	0	0	0	0	516	504	
7	0	0	0	0	598	507	
8	0	0	0	0	635	513	
9	0	0	0	0	560	519	
10	0	0	0	0	466	518	
11	0	0	0	0	331	513	
12	0	0	0	0	379	502	
13	0	0	0	0	445	501	
14	0	0	0	0	496	508	
15	0	0	0	0	514	513	
0	0	0	0	0	523	515	
1	0	0	0	0	538	515	
2	0	0	0	0	535	515	
3	0	0	0	0	495	514	
4	0	0	0	0	524	513	
5	0	0	0	0	597	512	
6	0	0	0	0	615	510	
7	0	0	0	0	515	508	
8	0	0	0	0	547	511	
9	0	0	0	0	517	510	
10	0	0	0	0	393	512	
11	0	0	0	0	425	511	
12	0	0	0	0	504	516	
13	0	0	0	0	430	518	
14	0	0	0	0	476	512	
15	0	0	0	0	560	507	
0	0	0	0	0	528	510	
1	0	0	0	0	474	511	
2	0	0	0	0	460	513	
3	0	0	0	0	488	513	
4	0	0	0	0	542	515	
5	0	0	0	0	569	515	
6	0	0	0	0	631	514	
7	0	0	0	0	662	515	
8	0	0	0	0	550	512	
9	0	0	0	0	454	511	
10	0	0	0	0	455	508	
11	0	0	0	0	444	509	
12	0	0	0	0	388	507	
13	0	0	0	0	410	508	
14	0	0	0	0	550	512	
15	0	0	0	0	507	513	
0	0	0	0	0	532	513	
1	0	0	0	0	551	512	
2	0	0	0	0	386	508	
3	0	0	0	0	480	510	
4	0	0	0	0	531	512	
5	0	0	0	0	462	512	
6	0	0	0	0	419	514	
7	0	0	0	0	469	514	
8	0	0	0	0	498	513	
9	0	0	0	0	528	513	
10	0	0	0	0	547	513	
11	0	0	0	0	545	510	
12	0	0	0	0	540	511	
13	0	0	0	0	534	508	
14	0	0	0	0	519	509	
15	0	0	0	0	524	512	
0	0	0	0	0	531	513	
1	0	0	0	0	537	510	
2	0	0	0	0	529	513	
3	0	0	0	0	528	512	
4	0	0	0	0	532	511	
5	0	0	0	0	481	511	
6	0	0	0	0	448	513	
7	0	0	0	0	497	512	
8	0	0	0	0	511	511	
9	0	0	0	0	523	513	
10	0	0	0	0	533	513	
11	0	0	0	0	547	512	
12	0	0	0	0	522	511	
13	0	0	0	0	489	511	
14	0	0	0	0	438	508	
15	0	0	0	0	410	513	
0	0	0	0	0	484	513	
1	0	0	0	0	521	513	
2	0	0	0	0	524	507	
3	0	0	0	0	537	509	
4	0	0	0	0	521	511	
5	0	0	0	0	504	514	
6	0	0	0	0	496	512	
7	0	0	0	0	497	514	
8	0	0	0	0	492	515	
9	0	0	0	0	500	515	
10	0	0	0	0	509	515	
11	0	0	0	0	536	515	
12	0	0	0	0	547	504	
13	0	0	0	0	562	504	
14	0	0	0	0	553	511	
15	0	0	0	0	540	515	
0	0	0	0	0	494	514	
1	0	0	0	0	468	518	
2	0	0	0	0	432	511	
3	0	0	0	0	536	510	
4	0	0	0	0	555	510	
5	0	0	0	0	502	511	
6	0	0	0	0	462	511	
7	0	0	0	0	527	513	
8	0	0	0	0	463	516	
9	0	0	0	0	354	515	
10	0	0	0	0	456	508	
11	0	0	0	0	534	510	
12	0	0	0	0	531	511	
13	0	0	0	0	548	513	
14	0	0	0	0	501	510	
15	0	0	0	0	471	506	
0	0	0	0	0	496	507	
1	0	0	0	0	522	509	
2	0	0	0	0	519	513	
3	0	0	0	0	533	515	
4	0	0	0	0	536	515	
5	0	0	0	0	515	515	
6	0	0	0	0	441	512	
7	0	0	0	0	480	513	
8	0	0	0	0	516	513	
9	0	0	0	0	536	513	
10	0	0	0	0	552	512	
11	0	0	0	0	567	514	
12	0	0	0	0	575	514	
13	0	0	0	0	571	512	
14	0	0	0	0	487	513	
15	0	0	0	0	384	512	
0	0	0	0	0	350	511	
1	0	0	0	0	458	512	
2	0	0	0	0	542	508	
3	0	0	0	0	550	510	
4	0	0	0	0	560	512	
5	0	0	0	0	567	511	
6	0	0	0	0	518	512	
7	0	0	0	0	457	511	
8	0	0	0	0	444	511	
9	0	0	0	0	482	512	
10	0	0	0	0	512	507	
11	0	0	0	0	531	510	
12	0	0	0	0	545	510	
13	0	0	0	0	543	511	
14	0	0	0	0	505	514	
15	0	0	0	0	386	514	
0	0	0	0	0	455	514	
1	0	0	0	0	508	514	
2	0	0	0	0	525	513	
3	0	0	0	0	528	515	
4	0	0	0	0	562	515	
5	0	0	0	0	567	511	
6	0	0	0	0	585	510	
7	0	0	0	0	581	511	
8	0	0	0	0	500	508	
9	0	0	0	0	322	510	
10	0	0	0	0	434	511	
11	0	0	0	0	518	512	
12	0	0	0	0	504	513	
13	0	0	0	0	465	512	
14	0	0	0	0	487	516	
15	0	0	0	0	515	512	
0	0	0	0	0	521	514	
1	0	0	0	0	523	511	
2	0	0	0	0	528	509	
3	0	0	0	0	516	509	
