# OpenSignals Text File Format. Version 1
# {"98:D3:71:FE:38:C0": {"position": 0, "device": "bitalino_rev", "device name": "98:D3:71:FE:38:C0", "device connection": "BTH98:D3:71:FE:38:C0", "sampling rate": 1000, "resolution": [4, 1, 1, 1, 1, 10, 10], "firmware version": 1282, "comments": "", "keywords": "", "mode": 0, "sync interval": 2, "date": "2026-6-12", "time": "12:16:47.137", "channels": [1, 2], "sensor": ["EMGBITREV", "EMGBITREV"], "label": ["A1", "A2"], "column": ["nSeq", "I1", "I2", "O1", "O2", "A1", "A2"], "special": [{}, {}], "digital IO": [0, 0, 1, 1]}}
# EndOfHeader
0	0	0	0	0	507	513	
1	0	0	0	0	507	514	
2	0	0	0	0	507	511	
3	0	0	0	0	504	511	
4	0	0	0	0	500	513	
5	0	0	0	0	502	511	
6	0	0	0	0	504	513	
7	0	0	0	0	505	512	
8	0	0	0	0	503	512	
9	0	0	0	0	503	511	
10	0	0	0	0	504	514	
11	0	0	0	0	505	512	
12	0	0	0	0	510	512	
13	0	0	0	0	511	511	
14	0	0	0	0	505	512	
15	0	0	0	0	504	511	
0	0	0	0	0	505	512	
1	0	0	0	0	505	512	
2	0	0	0	0	506	512	
3	0	0	0	0	507	510	
4	0	0	0	0	506	513	
5	0	0	0	0	508	512	
6	0	0	0	0	508	513	
7	0	0	0	0	508	511	
8	0	0	0	0	504	512	
9	0	0	0	0	503	511	
10	0	0	0	0	504	511	
11	0	0	0	0	505	512	
12	0	0	0	0	504	512	
13	0	0	0	0	502	511	
14	0	0	0	0	505	510	
15	0	0	0	0	506	511	
0	0	0	0	0	506	512	
1	0	0	0	0	507	512	
2	0	0	0	0	507	513	
3	0	0	0	0	505	512	
4	0	0	0	0	505	512	
5	0	0	0	0	506	511	
6	0	0	0	0	507	513	
7	0	0	0	0	505	510	
8	0	0	0	0	504	511	
9	0	0	0	0	506	511	
10	0	0	0	0	507	509	
11	0	0	0	0	505	510	
12	0	0	0	0	504	511	
13	0	0	0	0	505	513	
14	0	0	0	0	506	511	
15	0	0	0	0	504	513	
0	0	0	0	0	504	513	
1	0	0	0	0	505	512	
2	0	0	0	0	504	512	
3	0	0	0	0	505	511	
4	0	0	0	0	505	514	
5	0	0	0	0	507	512	
6	0	0	0	0	505	509	
7	0	0	0	0	503	510	
8	0	0	0	0	505	512	
9	0	0	0	0	504	512	
10	0	0	0	0	507	513	
11	0	0	0	0	504	514	
12	0	0	0	0	509	512	
13	0	0	0	0	508	511	
14	0	0	0	0	506	513	
15	0	0	0	0	505	512	
0	0	0	0	0	507	513	
1	0	0	0	0	507	513	
2	0	0	0	0	503	512	
3	0	0	0	0	503	511	
4	0	0	0	0	504	512	
5	0	0	0	0	504	511	
6	0	0	0	0	503	512	
7	0	0	0	0	504	512	
8	0	0	0	0	505	511	
9	0	0	0	0	508	512	
10	0	0	0	0	505	510	
11	0	0	0	0	505	512	
12	0	0	0	0	508	512	
13	0	0	0	0	510	512	
14	0	0	0	0	508	515	
15	0	0	0	0	508	510	
0	0	0	0	0	508	512	
1	0	0	0	0	503	512	
2	0	0	0	0	497	511	
3	0	0	0	0	500	512	
4	0	0	0	0	504	510	
5	0	0	0	0	506	511	
6	0	0	0	0	510	512	
7	0	0	0	0	510	514	
8	0	0	0	0	510	515	
9	0	0	0	0	505	512	
10	0	0	0	0	505	512	
11	0	0	0	0	505	511	
12	0	0	0	0	506	511	
13	0	0	0	0	503	512	
14	0	0	0	0	498	511	
15	0	0	0	0	501	512	
0	0	0	0	0	499	511	
1	0	0	0	0	503	511	
2	0	0	0	0	507	513	
3	0	0	0	0	506	510	
4	0	0	0	0	508	511	
5	0	0	0	0	506	511	
6	0	0	0	0	507	511	
7	0	0	0	0	505	513	
8	0	0	0	0	505	511	
9	0	0	0	0	506	512	
10	0	0	0	0	512	512	
11	0	0	0	0	510	511	
12	0	0	0	0	504	512	
13	0	0	0	0	502	511	
14	0	0	0	0	504	513	
15	0	0	0	0	507	512	
0	0	0	0	0	508	511	
1	0	0	0	0	508	511	
2	0	0	0	0	508	512	
3	0	0	0	0	510	512	
4	0	0	0	0	508	512	
5	0	0	0	0	506	511	
6	0	0	0	0	505	511	
7	0	0	0	0	504	513	
8	0	0	0	0	504	513	
9	0	0	0	0	505	511	
10	0	0	0	0	506	512	
11	0	0	0	0	506	511	
12	0	0	0	0	506	511	
13	0	0	0	0	504	512	
14	0	0	0	0	508	511	
15	0	0	0	0	504	513	
0	0	0	0	0	502	514	
1	0	0	0	0	503	512	
2	0	0	0	0	504	512	
3	0	0	0	0	505	513	
4	0	0	0	0	507	511	
5	0	0	0	0	507	511	
6	0	0	0	0	505	512	
7	0	0	0	0	504	515	
8	0	0	0	0	505	511	
9	0	0	0	0	507	512	
10	0	0	0	0	508	512	
11	0	0	0	0	507	511	
12	0	0	0	0	505	511	
13	0	0	0	0	505	512	
14	0	0	0	0	505	512	
15	0	0	0	0	504	513	
0	0	0	0	0	504	512	
1	0	0	0	0	504	510	
2	0	0	0	0	505	513	
3	0	0	0	0	506	513	
4	0	0	0	0	507	515	
5	0	0	0	0	505	513	
6	0	0	0	0	505	510	
7	0	0	0	0	506	513	
8	0	0	0	0	507	511	
9	0	0	0	0	505	512	
10	0	0	0	0	505	513	
11	0	0	0	0	504	511	
12	0	0	0	0	505	511	
13	0	0	0	0	504	513	
14	0	0	0	0	506	511	
15	0	0	0	0	507	513	
0	0	0	0	0	509	512	
1	0	0	0	0	504	510	
2	0	0	0	0	505	510	
3	0	0	0	0	506	511	
4	0	0	0	0	506	512	
5	0	0	0	0	505	512	
6	0	0	0	0	503	510	
7	0	0	0	0	501	514	
8	0	0	0	0	505	513	
9	0	0	0	0	506	511	
10	0	0	0	0	504	510	
11	0	0	0	0	505	511	
12	0	0	0	0	500	512	
13	0	0	0	0	504	512	
14	0	0	0	0	506	512	
15	0	0	0	0	511	512	
0	0	0	0	0	512	512	
1	0	0	0	0	507	511	
2	0	0	0	0	510	512	
3	0	0	0	0	508	511	
4	0	0	0	0	507	511	
5	0	0	0	0	503	512	
6	0	0	0	0	504	510	
7	0	0	0	0	507	513	
8	0	0	0	0	505	512	
9	0	0	0	0	503	512	
10	0	0	0	0	499	512	
11	0	0	0	0	502	512	
12	0	0	0	0	500	512	
13	0	0	0	0	504	513	
14	0	0	0	0	505	512	
15	0	0	0	0	504	511	
0	0	0	0	0	504	513	
1	0	0	0	0	507	513	
2	0	0	0	0	505	512	
3	0	0	0	0	505	510	
4	0	0	0	0	507	512	
5	0	0	0	0	506	511	
6	0	0	0	0	508	511	
7	0	0	0	0	508	511	
8	0	0	0	0	508	512	
9	0	0	0	0	508	512	
10	0	0	0	0	507	511	
11	0	0	0	0	505	512	
12	0	0	0	0	505	513	
13	0	0	0	0	504	511	
14	0	0	0	0	505	513	
15	0	0	0	0	506	513	
0	0	0	0	0	506	512	
1	0	0	0	0	505	511	
2	0	0	0	0	505	512	
3	0	0	0	0	505	513	
4	0	0	0	0	505	510	
5	0	0	0	0	504	511	
6	0	0	0	0	504	513	
7	0	0	0	0	505	511	
8	0	0	0	0	506	511	
9	0	0	0	0	507	512	
10	0	0	0	0	506	513	
11	0	0	0	0	508	513	
12	0	0	0	0	505	512	
13	0	0	0	0	504	513	
14	0	0	0	0	505	509	
15	0	0	0	0	506	512	
0	0	0	0	0	506	512	
1	0	0	0	0	504	513	
2	0	0	0	0	503	513	
3	0	0	0	0	505	511	
4	0	0	0	0	504	513	
5	0	0	0	0	510	512	
6	0	0	0	0	508	512	
7	0	0	0	0	508	512	
8	0	0	0	0	508	512	
9	0	0	0	0	504	511	
10	0	0	0	0	506	511	
11	0	0	0	0	506	510	
12	0	0	0	0	505	512	
13	0	0	0	0	504	512	
14	0	0	0	0	505	511	
15	0	0	0	0	504	510	
0	0	0	0	0	506	511	
1	0	0	0	0	505	512	
2	0	0	0	0	503	512	
3	0	0	0	0	504	511	
4	0	0	0	0	504	512	
5	0	0	0	0	504	513	
6	0	0	0	0	502	510	
7	0	0	0	0	504	512	
8	0	0	0	0	508	515	
9	0	0	0	0	505	511	
10	0	0	0	0	507	512	
11	0	0	0	0	505	511	
12	0	0	0	0	508	512	
13	0	0	0	0	508	512	
14	0	0	0	0	508	511	
15	0	0	0	0	501	511	
0	0	0	0	0	504	509	
1	0	0	0	0	506	512	
2	0	0	0	0	506	512	
3	0	0	0	0	508	509	
4	0	0	0	0	507	512	
5	0	0	0	0	504	512	
6	0	0	0	0	508	512	
7	0	0	0	0	503	513	
8	0	0	0	0	504	511	
9	0	0	0	0	505	513	
10	0	0	0	0	505	513	
11	0	0	0	0	504	511	
12	0	0	0	0	508	512	
13	0	0	0	0	511	510	
14	0	0	0	0	508	509	
15	0	0	0	0	507	511	
0	0	0	0	0	505	513	
1	0	0	0	0	507	513	
2	0	0	0	0	504	511	
3	0	0	0	0	503	512	
4	0	0	0	0	504	514	
5	0	0	0	0	503	512	
6	0	0	0	0	505	513	
7	0	0	0	0	501	512	
8	0	0	0	0	502	511	
9	0	0	0	0	499	511	
10	0	0	0	0	506	510	
11	0	0	0	0	508	510	
12	0	0	0	0	507	511	
13	0	0	0	0	503	512	
14	0	0	0	0	504	512	
15	0	0	0	0	506	512	
0	0	0	0	0	506	512	
1	0	0	0	0	507	513	
2	0	0	0	0	506	511	
3	0	0	0	0	510	513	
4	0	0	0	0	511	510	
5	0	0	0	0	507	513	
6	0	0	0	0	505	511	
7	0	0	0	0	504	511	
8	0	0	0	0	505	512	
9	0	0	0	0	504	510	
10	0	0	0	0	505	510	
11	0	0	0	0	505	511	
12	0	0	0	0	505	512	
13	0	0	0	0	504	511	
14	0	0	0	0	504	511	
15	0	0	0	0	504	514	
0	0	0	0	0	504	512	
1	0	0	0	0	504	514	
2	0	0	0	0	505	511	
3	0	0	0	0	504	513	
4	0	0	0	0	506	512	
5	0	0	0	0	507	512	
6	0	0	0	0	505	511	
7	0	0	0	0	504	511	
8	0	0	0	0	503	512	
9	0	0	0	0	507	514	
10	0	0	0	0	508	512	
11	0	0	0	0	508	511	
12	0	0	0	0	506	514	
13	0	0	0	0	504	511	
14	0	0	0	0	505	512	
15	0	0	0	0	505	510	
0	0	0	0	0	504	511	
1	0	0	0	0	504	511	
2	0	0	0	0	506	511	
3	0	0	0	0	508	514	
4	0	0	0	0	507	514	
5	0	0	0	0	504	513	
6	0	0	0	0	504	511	
7	0	0	0	0	506	512	
8	0	0	0	0	508	512	
9	0	0	0	0	507	511	
10	0	0	0	0	505	512	
11	0	0	0	0	503	512	
12	0	0	0	0	505	511	
13	0	0	0	0	506	513	
14	0	0	0	0	507	510	
15	0	0	0	0	507	515	
0	0	0	0	0	508	512	
1	0	0	0	0	506	513	
2	0	0	0	0	506	511	
3	0	0	0	0	504	511	
4	0	0	0	0	502	511	
5	0	0	0	0	505	513	
6	0	0	0	0	502	510	
7	0	0	0	0	507	512	
8	0	0	0	0	506	512	
9	0	0	0	0	507	512	
10	0	0	0	0	509	510	
11	0	0	0	0	507	511	
12	0	0	0	0	505	514	
13	0	0	0	0	507	512	
14	0	0	0	0	507	513	
15	0	0	0	0	507	510	
0	0	0	0	0	500	512	
1	0	0	0	0	496	511	
2	0	0	0	0	504	513	
3	0	0	0	0	507	512	
4	0	0	0	0	509	512	
5	0	0	0	0	511	513	
6	0	0	0	0	511	513	
7	0	0	0	0	507	512	
8	0	0	0	0	507	511	
9	0	0	0	0	506	512	
10	0	0	0	0	507	511	
11	0	0	0	0	504	511	
12	0	0	0	0	504	512	
13	0	0	0	0	505	511	
14	0	0	0	0	503	511	
15	0	0	0	0	500	510	
0	0	0	0	0	502	511	
1	0	0	0	0	500	512	
2	0	0	0	0	503	511	
3	0	0	0	0	504	512	
4	0	0	0	0	508	512	
5	0	0	0	0	509	512	
6	0	0	0	0	509	511	
7	0	0	0	0	508	513	
8	0	0	0	0	509	511	
9	0	0	0	0	506	511	
10	0	0	0	0	508	512	
11	0	0	0	0	505	512	
12	0	0	0	0	505	511	
13	0	0	0	0	504	509	
14	0	0	0	0	504	512	
15	0	0	0	0	503	511	
0	0	0	0	0	503	514	
1	0	0	0	0	505	512	
2	0	0	0	0	507	512	
3	0	0	0	0	507	512	
4	0	0	0	0	507	511	
5	0	0	0	0	508	512	
6	0	0	0	0	506	514	
7	0	0	0	0	505	511	
8	0	0	0	0	505	511	
9	0	0	0	0	505	513	
10	0	0	0	0	508	514	
11	0	0	0	0	507	511	
12	0	0	0	0	508	511	
13	0	0	0	0	507	511	
14	0	0	0	0	505	511	
15	0	0	0	0	504	510	
0	0	0	0	0	503	512	
1	0	0	0	0	503	510	
2	0	0	0	0	502	513	
3	0	0	0	0	505	513	
4	0	0	0	0	503	512	
5	0	0	0	0	502	513	
6	0	0	0	0	504	511	
7	0	0	0	0	507	510	
8	0	0	0	0	515	514	
9	0	0	0	0	507	513	
10	0	0	0	0	506	511	
11	0	0	0	0	509	512	
12	0	0	0	0	507	514	
13	0	0	0	0	504	511	
14	0	0	0	0	502	512	
15	0	0	0	0	502	511	
0	0	0	0	0	507	510	
1	0	0	0	0	508	511	
2	0	0	0	0	512	510	
3	0	0	0	0	508	510	
4	0	0	0	0	505	509	
5	0	0	0	0	507	512	
6	0	0	0	0	507	513	
7	0	0	0	0	500	513	
8	0	0	0	0	496	510	
9	0	0	0	0	504	512	
10	0	0	0	0	506	513	
11	0	0	0	0	506	512	
12	0	0	0	0	505	513	
13	0	0	0	0	505	513	
14	0	0	0	0	504	512	
15	0	0	0	0	502	511	
0	0	0	0	0	507	511	
1	0	0	0	0	509	511	
2	0	0	0	0	509	510	
3	0	0	0	0	507	511	
4	0	0	0	0	509	512	
5	0	0	0	0	506	511	
6	0	0	0	0	508	512	
7	0	0	0	0	502	513	
8	0	0	0	0	503	514	
9	0	0	0	0	502	512	
10	0	0	0	0	505	511	
11	0	0	0	0	503	511	
12	0	0	0	0	502	511	
13	0	0	0	0	502	512	
14	0	0	0	0	502	512	
15	0	0	0	0	503	512	
0	0	0	0	0	507	511	
1	0	0	0	0	508	511	
2	0	0	0	0	507	510	
3	0	0	0	0	504	512	
4	0	0	0	0	505	513	
5	0	0	0	0	504	513	
6	0	0	0	0	507	511	
7	0	0	0	0	509	512	
8	0	0	0	0	509	512	
9	0	0	0	0	506	512	
10	0	0	0	0	508	511	
11	0	0	0	0	508	512	
12	0	0	0	0	505	513	
13	0	0	0	0	507	512	
14	0	0	0	0	505	511	
15	0	0	0	0	504	513	
0	0	0	0	0	505	512	
1	0	0	0	0	507	511	
2	0	0	0	0	504	512	
3	0	0	0	0	504	513	
4	0	0	0	0	503	511	
5	0	0	0	0	503	512	
6	0	0	0	0	503	512	
7	0	0	0	0	507	511	
8	0	0	0	0	508	513	
9	0	0	0	0	509	512	
10	0	0	0	0	508	510	
11	0	0	0	0	506	512	
12	0	0	0	0	507	511	
13	0	0	0	0	508	511	
14	0	0	0	0	504	512	
15	0	0	0	0	502	511	
0	0	0	0	0	503	511	
1	0	0	0	0	503	511	
2	0	0	0	0	502	511	
3	0	0	0	0	504	513	
4	0	0	0	0	504	513	
5	0	0	0	0	507	511	
6	0	0	0	0	510	511	
7	0	0	0	0	506	512	
8	0	0	0	0	507	513	
9	0	0	0	0	505	512	
10	0	0	0	0	503	512	
11	0	0	0	0	502	511	
12	0	0	0	0	505	511	
13	0	0	0	0	506	510	
14	0	0	0	0	505	512	
15	0	0	0	0	505	514	
0	0	0	0	0	504	513	
1	0	0	0	0	504	513	
2	0	0	0	0	504	515	
3	0	0	0	0	506	512	
4	0	0	0	0	504	512	
5	0	0	0	0	505	513	
6	0	0	0	0	507	511	
7	0	0	0	0	510	511	
8	0	0	0	0	510	510	
9	0	0	0	0	506	511	
10	0	0	0	0	507	510	
11	0	0	0	0	508	511	
12	0	0	0	0	508	512	
13	0	0	0	0	507	512	
14	0	0	0	0	505	513	
15	0	0	0	0	504	511	
0	0	0	0	0	504	512	
1	0	0	0	0	507	513	
2	0	0	0	0	507	510	
3	0	0	0	0	505	513	
4	0	0	0	0	505	512	
5	0	0	0	0	502	513	
6	0	0	0	0	502	508	
7	0	0	0	0	503	506	
8	0	0	0	0	499	508	
9	0	0	0	0	501	507	
10	0	0	0	0	506	510	
11	0	0	0	0	506	512	
12	0	0	0	0	505	513	
13	0	0	0	0	510	511	
14	0	0	0	0	507	508	
15	0	0	0	0	505	518	
0	0	0	0	0	506	520	
1	0	0	0	0	504	517	
2	0	0	0	0	504	516	
3	0	0	0	0	504	510	
4	0	0	0	0	505	507	
5	0	0	0	0	505	510	
6	0	0	0	0	507	515	
7	0	0	0	0	505	523	
8	0	0	0	0	506	517	
9	0	0	0	0	506	513	
10	0	0	0	0	506	512	
11	0	0	0	0	505	509	
12	0	0	0	0	504	513	
13	0	0	0	0	504	512	
14	0	0	0	0	504	511	
15	0	0	0	0	505	511	
0	0	0	0	0	506	511	
1	0	0	0	0	507	512	
2	0	0	0	0	505	511	
3	0	0	0	0	506	507	
4	0	0	0	0	507	508	
5	0	0	0	0	506	508	
6	0	0	0	0	504	512	
7	0	0	0	0	506	510	
8	0	0	0	0	504	512	
9	0	0	0	0	507	510	
10	0	0	0	0	505	511	
11	0	0	0	0	506	512	
12	0	0	0	0	506	511	
13	0	0	0	0	505	513	
14	0	0	0	0	505	510	
15	0	0	0	0	507	510	
0	0	0	0	0	505	511	
1	0	0	0	0	505	513	
2	0	0	0	0	507	512	
3	0	0	0	0	508	513	
4	0	0	0	0	505	512	
5	0	0	0	0	504	513	
6	0	0	0	0	502	511	
7	0	0	0	0	503	513	
8	0	0	0	0	507	514	
9	0	0	0	0	504	512	
10	0	0	0	0	504	514	
11	0	0	0	0	507	514	
12	0	0	0	0	509	507	
13	0	0	0	0	505	504	
14	0	0	0	0	505	503	
15	0	0	0	0	505	499	
0	0	0	0	0	508	498	
1	0	0	0	0	505	502	
2	0	0	0	0	504	508	
3	0	0	0	0	503	497	
4	0	0	0	0	502	491	
5	0	0	0	0	505	493	
6	0	0	0	0	508	498	
7	0	0	0	0	508	489	
8	0	0	0	0	507	503	
9	0	0	0	0	508	532	
10	0	0	0	0	507	531	
11	0	0	0	0	506	508	
12	0	0	0	0	506	528	
13	0	0	0	0	507	594	
14	0	0	0	0	507	586	
15	0	0	0	0	504	577	
0	0	0	0	0	502	545	
1	0	0	0	0	505	524	
2	0	0	0	0	497	524	
3	0	0	0	0	502	506	
4	0	0	0	0	505	493	
5	0	0	0	0	505	487	
6	0	0	0	0	507	487	
7	0	0	0	0	505	483	
8	0	0	0	0	508	492	
9	0	0	0	0	508	492	
10	0	0	0	0	507	514	
11	0	0	0	0	505	518	
12	0	0	0	0	505	507	
13	0	0	0	0	505	508	
14	0	0	0	0	505	515	
15	0	0	0	0	507	528	
0	0	0	0	0	504	520	
1	0	0	0	0	505	508	
2	0	0	0	0	505	504	
3	0	0	0	0	508	503	
4	0	0	0	0	504	508	
5	0	0	0	0	508	507	
6	0	0	0	0	506	505	
7	0	0	0	0	505	507	
8	0	0	0	0	504	505	
9	0	0	0	0	504	504	
10	0	0	0	0	506	504	
11	0	0	0	0	504	506	
12	0	0	0	0	508	507	
13	0	0	0	0	505	519	
14	0	0	0	0	505	521	
15	0	0	0	0	507	514	
0	0	0	0	0	505	513	
1	0	0	0	0	507	511	
2	0	0	0	0	508	511	
3	0	0	0	0	507	510	
4	0	0	0	0	507	509	
5	0	0	0	0	504	510	
6	0	0	0	0	505	510	
7	0	0	0	0	506	512	
8	0	0	0	0	507	514	
9	0	0	0	0	505	515	
10	0	0	0	0	503	512	
11	0	0	0	0	504	510	
12	0	0	0	0	504	509	
13	0	0	0	0	503	509	
14	0	0	0	0	500	512	
15	0	0	0	0	505	512	
0	0	0	0	0	512	515	
1	0	0	0	0	511	515	
2	0	0	0	0	507	513	
3	0	0	0	0	508	514	
4	0	0	0	0	506	512	
5	0	0	0	0	509	513	
6	0	0	0	0	511	511	
7	0	0	0	0	509	511	
8	0	0	0	0	504	512	
9	0	0	0	0	498	514	
10	0	0	0	0	502	512	
11	0	0	0	0	502	512	
12	0	0	0	0	504	511	
13	0	0	0	0	505	512	
14	0	0	0	0	503	511	
15	0	0	0	0	505	512	
0	0	0	0	0	506	511	
1	0	0	0	0	500	512	
2	0	0	0	0	502	512	
3	0	0	0	0	502	512	
4	0	0	0	0	506	513	
5	0	0	0	0	509	513	
6	0	0	0	0	508	513	
7	0	0	0	0	508	513	
8	0	0	0	0	504	511	
9	0	0	0	0	507	512	
10	0	0	0	0	506	511	
11	0	0	0	0	507	512	
12	0	0	0	0	506	511	
13	0	0	0	0	505	512	
14	0	0	0	0	507	512	
15	0	0	0	0	507	509	
0	0	0	0	0	505	511	
1	0	0	0	0	503	511	
2	0	0	0	0	502	512	
3	0	0	0	0	504	511	
4	0	0	0	0	504	512	
5	0	0	0	0	506	511	
6	0	0	0	0	507	511	
7	0	0	0	0	506	511	
8	0	0	0	0	506	510	
9	0	0	0	0	508	510	
10	0	0	0	0	508	512	
11	0	0	0	0	506	513	
12	0	0	0	0	505	513	
13	0	0	0	0	505	513	
14	0	0	0	0	505	511	
15	0	0	0	0	504	513	
0	0	0	0	0	506	514	
1	0	0	0	0	506	513	
2	0	0	0	0	506	512	
3	0	0	0	0	505	513	
4	0	0	0	0	504	510	
5	0	0	0	0	507	511	
6	0	0	0	0	505	512	
7	0	0	0	0	507	511	
8	0	0	0	0	506	512	
9	0	0	0	0	505	511	
10	0	0	0	0	505	511	
11	0	0	0	0	507	513	
12	0	0	0	0	506	511	
13	0	0	0	0	504	513	
14	0	0	0	0	505	511	
15	0	0	0	0	505	512	
0	0	0	0	0	504	513	
1	0	0	0	0	504	512	
2	0	0	0	0	504	512	
3	0	0	0	0	505	514	
4	0	0	0	0	506	511	
5	0	0	0	0	502	511	
6	0	0	0	0	504	514	
7	0	0	0	0	505	511	
8	0	0	0	0	507	512	
9	0	0	0	0	511	513	
10	0	0	0	0	507	512	
11	0	0	0	0	507	512	
12	0	0	0	0	506	512	
13	0	0	0	0	508	513	
14	0	0	0	0	508	513	
15	0	0	0	0	507	513	
0	0	0	0	0	506	514	
1	0	0	0	0	505	513	
2	0	0	0	0	507	513	
3	0	0	0	0	504	513	
4	0	0	0	0	497	513	
5	0	0	0	0	496	509	
6	0	0	0	0	500	512	
7	0	0	0	0	504	508	
8	0	0	0	0	510	504	
9	0	0	0	0	507	507	
10	0	0	0	0	508	509	
11	0	0	0	0	505	513	
12	0	0	0	0	503	514	
13	0	0	0	0	512	513	
14	0	0	0	0	516	513	
15	0	0	0	0	507	508	
0	0	0	0	0	508	497	
1	0	0	0	0	508	495	
2	0	0	0	0	505	496	
3	0	0	0	0	502	501	
4	0	0	0	0	502	508	
5	0	0	0	0	499	510	
6	0	0	0	0	502	512	
7	0	0	0	0	504	517	
8	0	0	0	0	504	529	
9	0	0	0	0	505	545	
10	0	0	0	0	508	551	
11	0	0	0	0	508	536	
12	0	0	0	0	508	523	
13	0	0	0	0	505	511	
14	0	0	0	0	505	507	
15	0	0	0	0	506	507	
0	0	0	0	0	505	505	
1	0	0	0	0	505	507	
2	0	0	0	0	505	508	
3	0	0	0	0	506	507	
4	0	0	0	0	505	507	
5	0	0	0	0	504	508	
6	0	0	0	0	505	508	
7	0	0	0	0	506	508	
8	0	0	0	0	505	508	
9	0	0	0	0	507	510	
10	0	0	0	0	503	510	
11	0	0	0	0	505	510	
12	0	0	0	0	506	508	
13	0	0	0	0	505	511	
14	0	0	0	0	507	511	
15	0	0	0	0	506	510	
0	0	0	0	0	505	510	
1	0	0	0	0	506	511	
2	0	0	0	0	508	513	
3	0	0	0	0	506	512	
4	0	0	0	0	504	512	
5	0	0	0	0	504	512	
6	0	0	0	0	507	512	
7	0	0	0	0	503	512	
8	0	0	0	0	505	511	
9	0	0	0	0	507	511	
10	0	0	0	0	506	513	
11	0	0	0	0	505	513	
12	0	0	0	0	505	513	
13	0	0	0	0	504	515	
14	0	0	0	0	504	510	
15	0	0	0	0	504	511	
0	0	0	0	0	505	512	
1	0	0	0	0	505	512	
2	0	0	0	0	508	510	
3	0	0	0	0	507	510	
4	0	0	0	0	508	514	
5	0	0	0	0	508	514	
6	0	0	0	0	505	515	
7	0	0	0	0	504	513	
8	0	0	0	0	504	512	
9	0	0	0	0	507	512	
10	0	0	0	0	504	510	
11	0	0	0	0	504	513	
12	0	0	0	0	508	510	
13	0	0	0	0	511	513	
14	0	0	0	0	512	512	
15	0	0	0	0	508	511	
0	0	0	0	0	497	511	
1	0	0	0	0	495	512	
2	0	0	0	0	500	513	
3	0	0	0	0	504	512	
4	0	0	0	0	505	511	
5	0	0	0	0	507	509	
6	0	0	0	0	508	510	
7	0	0	0	0	508	511	
8	0	0	0	0	509	512	
9	0	0	0	0	509	512	
10	0	0	0	0	505	511	
11	0	0	0	0	504	514	
12	0	0	0	0	506	512	
13	0	0	0	0	505	513	
14	0	0	0	0	505	512	
15	0	0	0	0	508	511	
0	0	0	0	0	507	512	
1	0	0	0	0	505	511	
2	0	0	0	0	501	512	
3	0	0	0	0	502	510	
4	0	0	0	0	500	511	
5	0	0	0	0	501	512	
6	0	0	0	0	504	513	
7	0	0	0	0	508	511	
8	0	0	0	0	505	512	
9	0	0	0	0	507	511	
10	0	0	0	0	507	512	
11	0	0	0	0	507	512	
12	0	0	0	0	508	513	
13	0	0	0	0	505	512	
14	0	0	0	0	507	511	
15	0	0	0	0	503	512	
0	0	0	0	0	505	512	
1	0	0	0	0	506	513	
2	0	0	0	0	506	513	
3	0	0	0	0	504	512	
4	0	0	0	0	505	512	
5	0	0	0	0	506	511	
6	0	0	0	0	505	512	
7	0	0	0	0	505	511	
8	0	0	0	0	507	512	
9	0	0	0	0	504	512	
10	0	0	0	0	508	510	
11	0	0	0	0	505	510	
12	0	0	0	0	502	511	
13	0	0	0	0	503	512	
14	0	0	0	0	508	513	
15	0	0	0	0	511	512	
0	0	0	0	0	507	511	
1	0	0	0	0	506	514	
2	0	0	0	0	509	513	
3	0	0	0	0	508	510	
4	0	0	0	0	507	511	
5	0	0	0	0	507	513	
6	0	0	0	0	504	511	
7	0	0	0	0	506	511	
8	0	0	0	0	504	511	
9	0	0	0	0	502	512	
10	0	0	0	0	505	512	
11	0	0	0	0	505	512	
12	0	0	0	0	502	513	
13	0	0	0	0	505	512	
14	0	0	0	0	505	512	
15	0	0	0	0	508	512	
0	0	0	0	0	507	511	
1	0	0	0	0	504	511	
2	0	0	0	0	503	512	
3	0	0	0	0	503	513	
4	0	0	0	0	506	512	
5	0	0	0	0	505	510	
6	0	0	0	0	507	512	
7	0	0	0	0	505	513	
8	0	0	0	0	505	512	
9	0	0	0	0	507	513	
10	0	0	0	0	507	513	
11	0	0	0	0	508	513	
12	0	0	0	0	504	511	
13	0	0	0	0	500	511	
14	0	0	0	0	502	510	
15	0	0	0	0	505	511	
0	0	0	0	0	510	511	
1	0	0	0	0	508	511	
2	0	0	0	0	507	511	
3	0	0	0	0	507	511	
4	0	0	0	0	504	513	
5	0	0	0	0	504	513	
6	0	0	0	0	507	510	
7	0	0	0	0	508	512	
8	0	0	0	0	508	512	
9	0	0	0	0	507	512	
10	0	0	0	0	500	511	
11	0	0	0	0	504	512	
12	0	0	0	0	501	512	
13	0	0	0	0	502	513	
14	0	0	0	0	503	513	
15	0	0	0	0	507	513	
0	0	0	0	0	506	511	
1	0	0	0	0	508	512	
2	0	0	0	0	507	512	
3	0	0	0	0	503	512	
4	0	0	0	0	505	512	
5	0	0	0	0	505	511	
6	0	0	0	0	506	514	
7	0	0	0	0	507	513	
8	0	0	0	0	507	511	
9	0	0	0	0	505	511	
10	0	0	0	0	505	510	
11	0	0	0	0	504	512	
12	0	0	0	0	507	511	
13	0	0	0	0	504	512	
14	0	0	0	0	505	512	
15	0	0	0	0	506	511	
0	0	0	0	0	506	512	
1	0	0	0	0	508	511	
2	0	0	0	0	510	511	
3	0	0	0	0	509	511	
4	0	0	0	0	504	508	
5	0	0	0	0	504	512	
6	0	0	0	0	507	512	
7	0	0	0	0	504	511	
8	0	0	0	0	506	513	
9	0	0	0	0	504	513	
10	0	0	0	0	505	513	
11	0	0	0	0	507	513	
12	0	0	0	0	505	515	
13	0	0	0	0	503	511	
14	0	0	0	0	502	511	
15	0	0	0	0	504	510	
0	0	0	0	0	504	512	
1	0	0	0	0	503	510	
2	0	0	0	0	503	511	
3	0	0	0	0	505	511	
4	0	0	0	0	508	510	
5	0	0	0	0	506	513	
6	0	0	0	0	506	513	
7	0	0	0	0	506	512	
8	0	0	0	0	508	511	
9	0	0	0	0	509	511	
10	0	0	0	0	510	512	
11	0	0	0	0	507	512	
12	0	0	0	0	504	513	
13	0	0	0	0	505	512	
14	0	0	0	0	508	513	
15	0	0	0	0	504	512	
0	0	0	0	0	503	510	
1	0	0	0	0	505	511	
2	0	0	0	0	507	512	
3	0	0	0	0	506	512	
4	0	0	0	0	506	513	
5	0	0	0	0	504	511	
6	0	0	0	0	504	515	
7	0	0	0	0	504	510	
8	0	0	0	0	506	511	
9	0	0	0	0	503	511	
10	0	0	0	0	503	512	
11	0	0	0	0	504	512	
12	0	0	0	0	505	511	
13	0	0	0	0	508	512	
14	0	0	0	0	508	513	
15	0	0	0	0	508	512	
0	0	0	0	0	513	512	
1	0	0	0	0	510	513	
2	0	0	0	0	506	511	
3	0	0	0	0	503	512	
4	0	0	0	0	508	512	
5	0	0	0	0	509	511	
6	0	0	0	0	505	513	
7	0	0	0	0	497	511	
8	0	0	0	0	498	510	
9	0	0	0	0	492	512	
10	0	0	0	0	497	510	
11	0	0	0	0	504	514	
12	0	0	0	0	507	513	
13	0	0	0	0	507	512	
14	0	0	0	0	508	513	
15	0	0	0	0	508	512	
0	0	0	0	0	507	511	
1	0	0	0	0	507	512	
2	0	0	0	0	507	512	
3	0	0	0	0	507	511	
4	0	0	0	0	505	511	
5	0	0	0	0	506	510	
6	0	0	0	0	504	512	
7	0	0	0	0	507	513	
8	0	0	0	0	507	511	
9	0	0	0	0	506	512	
10	0	0	0	0	505	511	
11	0	0	0	0	506	512	
12	0	0	0	0	506	511	
13	0	0	0	0	506	514	
14	0	0	0	0	508	512	
15	0	0	0	0	508	514	
0	0	0	0	0	510	513	
1	0	0	0	0	505	513	
2	0	0	0	0	502	511	
3	0	0	0	0	504	510	
4	0	0	0	0	502	512	
5	0	0	0	0	505	513	
6	0	0	0	0	507	514	
7	0	0	0	0	505	511	
8	0	0	0	0	505	513	
9	0	0	0	0	506	512	
10	0	0	0	0	507	510	
11	0	0	0	0	504	511	
12	0	0	0	0	504	511	
13	0	0	0	0	508	512	
14	0	0	0	0	510	512	
15	0	0	0	0	504	510	
0	0	0	0	0	505	511	
1	0	0	0	0	504	511	
2	0	0	0	0	503	513	
3	0	0	0	0	501	512	
4	0	0	0	0	504	513	
5	0	0	0	0	509	513	
6	0	0	0	0	512	511	
7	0	0	0	0	510	512	
8	0	0	0	0	505	513	
9	0	0	0	0	503	513	
10	0	0	0	0	503	511	
11	0	0	0	0	503	511	
12	0	0	0	0	504	511	
13	0	0	0	0	507	511	
14	0	0	0	0	505	513	
15	0	0	0	0	505	513	
0	0	0	0	0	504	513	
1	0	0	0	0	504	511	
2	0	0	0	0	504	510	
3	0	0	0	0	505	511	
4	0	0	0	0	504	511	
5	0	0	0	0	505	511	
6	0	0	0	0	508	511	
7	0	0	0	0	509	515	
8	0	0	0	0	506	512	
9	0	0	0	0	505	512	
10	0	0	0	0	504	512	
11	0	0	0	0	503	508	
12	0	0	0	0	503	511	
13	0	0	0	0	505	513	
14	0	0	0	0	506	512	
15	0	0	0	0	503	511	
0	0	0	0	0	504	511	
1	0	0	0	0	505	513	
2	0	0	0	0	507	513	
3	0	0	0	0	506	513	
4	0	0	0	0	507	511	
5	0	0	0	0	508	512	
6	0	0	0	0	505	512	
7	0	0	0	0	505	511	
8	0	0	0	0	506	513	
9	0	0	0	0	506	511	
10	0	0	0	0	507	511	
11	0	0	0	0	505	511	
12	0	0	0	0	508	512	
13	0	0	0	0	508	513	
14	0	0	0	0	504	513	
15	0	0	0	0	508	511	
0	0	0	0	0	507	511	
1	0	0	0	0	507	509	
2	0	0	0	0	505	512	
3	0	0	0	0	507	513	
4	0	0	0	0	505	513	
5	0	0	0	0	508	511	
6	0	0	0	0	503	512	
7	0	0	0	0	503	511	
8	0	0	0	0	493	511	
9	0	0	0	0	492	512	
10	0	0	0	0	500	514	
11	0	0	0	0	507	512	
12	0	0	0	0	510	511	
13	0	0	0	0	509	512	
14	0	0	0	0	505	511	
15	0	0	0	0	505	511	
0	0	0	0	0	505	512	
1	0	0	0	0	505	512	
2	0	0	0	0	505	511	
3	0	0	0	0	504	512	
4	0	0	0	0	504	513	
5	0	0	0	0	508	511	
6	0	0	0	0	514	512	
7	0	0	0	0	515	512	
8	0	0	0	0	516	512	
9	0	0	0	0	508	510	
10	0	0	0	0	502	513	
11	0	0	0	0	499	512	
12	0	0	0	0	504	510	
13	0	0	0	0	508	512	
14	0	0	0	0	504	512	
15	0	0	0	0	507	512	
0	0	0	0	0	506	514	
1	0	0	0	0	503	510	
2	0	0	0	0	505	514	
3	0	0	0	0	505	512	
4	0	0	0	0	507	511	
5	0	0	0	0	504	513	
6	0	0	0	0	506	513	
7	0	0	0	0	505	512	
8	0	0	0	0	505	511	
9	0	0	0	0	504	512	
10	0	0	0	0	505	511	
11	0	0	0	0	502	512	
12	0	0	0	0	503	511	
13	0	0	0	0	505	511	
14	0	0	0	0	507	513	
15	0	0	0	0	504	511	
0	0	0	0	0	503	512	
1	0	0	0	0	506	511	
2	0	0	0	0	508	513	
3	0	0	0	0	504	513	
4	0	0	0	0	505	512	
5	0	0	0	0	505	514	
6	0	0	0	0	507	510	
7	0	0	0	0	505	511	
8	0	0	0	0	508	511	
9	0	0	0	0	505	514	
10	0	0	0	0	504	512	
11	0	0	0	0	505	512	
12	0	0	0	0	505	511	
13	0	0	0	0	507	511	
14	0	0	0	0	506	514	
15	0	0	0	0	505	512	
0	0	0	0	0	506	510	
1	0	0	0	0	505	513	
2	0	0	0	0	504	512	
3	0	0	0	0	504	513	
4	0	0	0	0	504	511	
5	0	0	0	0	506	511	
6	0	0	0	0	502	511	
7	0	0	0	0	503	510	
8	0	0	0	0	506	511	
9	0	0	0	0	510	513	
10	0	0	0	0	508	513	
11	0	0	0	0	505	514	
12	0	0	0	0	507	512	
13	0	0	0	0	510	510	
14	0	0	0	0	510	512	
15	0	0	0	0	507	510	
0	0	0	0	0	507	511	
1	0	0	0	0	505	512	
2	0	0	0	0	504	513	
3	0	0	0	0	504	512	
4	0	0	0	0	503	512	
5	0	0	0	0	504	512	
6	0	0	0	0	506	513	
7	0	0	0	0	503	514	
8	0	0	0	0	502	514	
9	0	0	0	0	500	511	
10	0	0	0	0	504	511	
11	0	0	0	0	505	511	
12	0	0	0	0	505	512	
13	0	0	0	0	507	511	
14	0	0	0	0	508	512	
15	0	0	0	0	504	509	
0	0	0	0	0	505	512	
1	0	0	0	0	508	512	
2	0	0	0	0	508	511	
3	0	0	0	0	507	513	
4	0	0	0	0	505	514	
5	0	0	0	0	504	514	
6	0	0	0	0	502	514	
7	0	0	0	0	505	512	
8	0	0	0	0	506	512	
9	0	0	0	0	507	512	
10	0	0	0	0	507	512	
11	0	0	0	0	505	512	
12	0	0	0	0	506	512	
13	0	0	0	0	506	510	
14	0	0	0	0	503	509	
15	0	0	0	0	504	512	
0	0	0	0	0	505	510	
1	0	0	0	0	508	511	
2	0	0	0	0	508	512	
3	0	0	0	0	505	512	
4	0	0	0	0	508	511	
5	0	0	0	0	508	509	
6	0	0	0	0	507	509	
7	0	0	0	0	505	514	
8	0	0	0	0	505	514	
9	0	0	0	0	504	512	
10	0	0	0	0	504	513	
11	0	0	0	0	507	512	
12	0	0	0	0	506	512	
13	0	0	0	0	505	512	
14	0	0	0	0	505	512	
15	0	0	0	0	504	513	
0	0	0	0	0	504	512	
1	0	0	0	0	505	513	
2	0	0	0	0	505	511	
3	0	0	0	0	504	510	
4	0	0	0	0	504	512	
5	0	0	0	0	505	511	
6	0	0	0	0	504	511	
7	0	0	0	0	504	513	
8	0	0	0	0	505	511	
9	0	0	0	0	504	511	
10	0	0	0	0	508	511	
11	0	0	0	0	508	515	
12	0	0	0	0	506	509	
13	0	0	0	0	505	510	
14	0	0	0	0	504	513	
15	0	0	0	0	506	513	
0	0	0	0	0	505	513	
1	0	0	0	0	505	514	
2	0	0	0	0	503	511	
3	0	0	0	0	504	511	
4	0	0	0	0	503	515	
5	0	0	0	0	504	512	
6	0	0	0	0	505	512	
7	0	0	0	0	506	512	
8	0	0	0	0	513	514	
9	0	0	0	0	514	512	
10	0	0	0	0	508	513	
11	0	0	0	0	504	512	
12	0	0	0	0	502	512	
13	0	0	0	0	502	512	
14	0	0	0	0	507	511	
15	0	0	0	0	504	512	
0	0	0	0	0	505	512	
1	0	0	0	0	497	511	
2	0	0	0	0	502	513	
3	0	0	0	0	503	512	
4	0	0	0	0	505	512	
5	0	0	0	0	504	512	
6	0	0	0	0	505	511	
7	0	0	0	0	506	512	
8	0	0	0	0	510	511	
9	0	0	0	0	507	509	
10	0	0	0	0	505	510	
11	0	0	0	0	507	511	
12	0	0	0	0	508	509	
13	0	0	0	0	506	514	
14	0	0	0	0	505	512	
15	0	0	0	0	508	510	
0	0	0	0	0	506	512	
1	0	0	0	0	505	511	
2	0	0	0	0	505	512	
3	0	0	0	0	505	511	
4	0	0	0	0	504	515	
5	0	0	0	0	498	510	
6	0	0	0	0	500	512	
7	0	0	0	0	504	512	
8	0	0	0	0	506	511	
9	0	0	0	0	507	512	
10	0	0	0	0	508	512	
11	0	0	0	0	507	513	
12	0	0	0	0	504	513	
13	0	0	0	0	506	514	
14	0	0	0	0	508	513	
15	0	0	0	0	507	512	
0	0	0	0	0	507	509	
1	0	0	0	0	506	511	
2	0	0	0	0	505	510	
3	0	0	0	0	502	512	
4	0	0	0	0	503	512	
5	0	0	0	0	505	513	
6	0	0	0	0	508	512	
7	0	0	0	0	508	513	
8	0	0	0	0	507	511	
9	0	0	0	0	504	513	
10	0	0	0	0	504	513	
11	0	0	0	0	507	513	
12	0	0	0	0	505	511	
13	0	0	0	0	504	513	
14	0	0	0	0	503	513	
15	0	0	0	0	504	510	
0	0	0	0	0	506	511	
1	0	0	0	0	508	512	
2	0	0	0	0	507	512	
3	0	0	0	0	505	512	
4	0	0	0	0	505	512	
5	0	0	0	0	505	512	
6	0	0	0	0	507	510	
7	0	0	0	0	506	511	
8	0	0	0	0	504	512	
9	0	0	0	0	506	513	
10	0	0	0	0	505	510	
11	0	0	0	0	507	511	
12	0	0	0	0	506	511	
13	0	0	0	0	508	513	
14	0	0	0	0	505	515	
15	0	0	0	0	502	514	
0	0	0	0	0	507	513	
1	0	0	0	0	505	511	
2	0	0	0	0	505	511	
3	0	0	0	0	505	514	
4	0	0	0	0	503	511	
5	0	0	0	0	505	510	
6	0	0	0	0	509	509	
7	0	0	0	0	507	511	
8	0	0	0	0	510	512	
9	0	0	0	0	508	512	
10	0	0	0	0	507	513	
11	0	0	0	0	505	513	
12	0	0	0	0	503	511	
13	0	0	0	0	502	512	
14	0	0	0	0	503	512	
15	0	0	0	0	505	512	
0	0	0	0	0	498	513	
1	0	0	0	0	501	511	
2	0	0	0	0	499	512	
3	0	0	0	0	504	513	
4	0	0	0	0	506	511	
5	0	0	0	0	504	512	
6	0	0	0	0	503	511	
7	0	0	0	0	505	510	
8	0	0	0	0	511	512	
9	0	0	0	0	511	512	
10	0	0	0	0	507	511	
11	0	0	0	0	508	513	
12	0	0	0	0	508	513	
13	0	0	0	0	504	512	
14	0	0	0	0	505	512	
15	0	0	0	0	505	511	
0	0	0	0	0	504	513	
1	0	0	0	0	503	513	
2	0	0	0	0	503	510	
3	0	0	0	0	506	512	
4	0	0	0	0	505	510	
5	0	0	0	0	507	510	
6	0	0	0	0	505	511	
7	0	0	0	0	508	511	
8	0	0	0	0	508	511	
9	0	0	0	0	508	511	
10	0	0	0	0	505	512	
11	0	0	0	0	505	512	
12	0	0	0	0	505	513	
13	0	0	0	0	503	513	
14	0	0	0	0	504	514	
15	0	0	0	0	506	513	
0	0	0	0	0	506	513	
1	0	0	0	0	505	512	
2	0	0	0	0	506	513	
3	0	0	0	0	505	512	
4	0	0	0	0	507	512	
5	0	0	0	0	508	512	
6	0	0	0	0	507	511	
7	0	0	0	0	503	510	
8	0	0	0	0	500	512	
9	0	0	0	0	496	513	
10	0	0	0	0	504	512	
11	0	0	0	0	511	510	
12	0	0	0	0	511	513	
13	0	0	0	0	510	514	
14	0	0	0	0	509	515	
15	0	0	0	0	510	512	
0	0	0	0	0	507	511	
1	0	0	0	0	502	510	
2	0	0	0	0	499	511	
3	0	0	0	0	504	510	
4	0	0	0	0	503	510	
5	0	0	0	0	504	513	
6	0	0	0	0	505	512	
7	0	0	0	0	502	513	
8	0	0	0	0	506	512	
9	0	0	0	0	506	512	
10	0	0	0	0	506	511	
11	0	0	0	0	503	511	
12	0	0	0	0	507	513	
13	0	0	0	0	512	511	
14	0	0	0	0	508	512	
15	0	0	0	0	503	511	
0	0	0	0	0	504	512	
1	0	0	0	0	508	510	
2	0	0	0	0	508	512	
3	0	0	0	0	508	513	
4	0	0	0	0	506	512	
5	0	0	0	0	509	513	
6	0	0	0	0	508	512	
7	0	0	0	0	507	512	
8	0	0	0	0	506	513	
9	0	0	0	0	508	510	
10	0	0	0	0	506	511	
11	0	0	0	0	503	510	
12	0	0	0	0	499	514	
13	0	0	0	0	498	512	
14	0	0	0	0	502	512	
15	0	0	0	0	497	511	
0	0	0	0	0	498	511	
1	0	0	0	0	502	511	
2	0	0	0	0	507	512	
3	0	0	0	0	509	511	
4	0	0	0	0	508	512	
5	0	0	0	0	507	511	
6	0	0	0	0	507	512	
7	0	0	0	0	505	511	
8	0	0	0	0	504	511	
9	0	0	0	0	505	513	
10	0	0	0	0	505	512	
11	0	0	0	0	504	512	
12	0	0	0	0	507	513	
13	0	0	0	0	504	513	
14	0	0	0	0	507	513	
15	0	0	0	0	510	510	
0	0	0	0	0	508	511	
1	0	0	0	0	505	513	
2	0	0	0	0	505	512	
3	0	0	0	0	507	512	
4	0	0	0	0	507	511	
5	0	0	0	0	504	511	
6	0	0	0	0	505	512	
7	0	0	0	0	504	511	
8	0	0	0	0	507	512	
9	0	0	0	0	503	512	
10	0	0	0	0	504	511	
11	0	0	0	0	504	511	
12	0	0	0	0	504	511	
13	0	0	0	0	508	513	
14	0	0	0	0	507	513	
15	0	0	0	0	507	512	
0	0	0	0	0	506	511	
1	0	0	0	0	503	513	
2	0	0	0	0	505	512	
3	0	0	0	0	507	511	
4	0	0	0	0	504	510	
5	0	0	0	0	505	511	
6	0	0	0	0	506	513	
7	0	0	0	0	505	512	
8	0	0	0	0	508	513	
9	0	0	0	0	509	512	
10	0	0	0	0	508	510	
11	0	0	0	0	507	511	
12	0	0	0	0	499	511	
13	0	0	0	0	503	511	
14	0	0	0	0	505	513	
15	0	0	0	0	505	513	
0	0	0	0	0	507	511	
1	0	0	0	0	508	511	
2	0	0	0	0	507	511	
3	0	0	0	0	507	511	
4	0	0	0	0	508	511	
5	0	0	0	0	507	512	
6	0	0	0	0	505	509	
7	0	0	0	0	502	512	
8	0	0	0	0	505	514	
9	0	0	0	0	505	511	
10	0	0	0	0	505	512	
11	0	0	0	0	504	514	
12	0	0	0	0	505	512	
13	0	0	0	0	504	512	
14	0	0	0	0	505	512	
15	0	0	0	0	504	513	
0	0	0	0	0	506	509	
1	0	0	0	0	508	510	
2	0	0	0	0	505	511	
3	0	0	0	0	504	510	
4	0	0	0	0	505	512	
5	0	0	0	0	505	511	
6	0	0	0	0	504	511	
7	0	0	0	0	504	512	
8	0	0	0	0	504	511	
9	0	0	0	0	505	511	
10	0	0	0	0	504	510	
11	0	0	0	0	505	511	
12	0	0	0	0	505	515	
13	0	0	0	0	505	513	
14	0	0	0	0	505	513	
15	0	0	0	0	507	513	
0	0	0	0	0	505	511	
1	0	0	0	0	505	515	
2	0	0	0	0	507	513	
3	0	0	0	0	507	513	
4	0	0	0	0	505	513	
5	0	0	0	0	507	512	
6	0	0	0	0	504	510	
7	0	0	0	0	503	513	
8	0	0	0	0	508	512	
9	0	0	0	0	510	512	
10	0	0	0	0	507	511	
11	0	0	0	0	509	510	
12	0	0	0	0	507	513	
13	0	0	0	0	508	512	
14	0	0	0	0	507	511	
15	0	0	0	0	504	511	
0	0	0	0	0	503	511	
1	0	0	0	0	504	512	
2	0	0	0	0	504	512	
3	0	0	0	0	499	512	
4	0	0	0	0	501	510	
5	0	0	0	0	499	510	
6	0	0	0	0	502	510	
7	0	0	0	0	504	513	
8	0	0	0	0	509	513	
9	0	0	0	0	508	511	
10	0	0	0	0	505	511	
11	0	0	0	0	508	513	
12	0	0	0	0	510	511	
13	0	0	0	0	503	512	
14	0	0	0	0	502	511	
15	0	0	0	0	504	512	
0	0	0	0	0	507	512	
1	0	0	0	0	507	510	
2	0	0	0	0	512	512	
3	0	0	0	0	509	512	
4	0	0	0	0	508	515	
5	0	0	0	0	507	512	
6	0	0	0	0	502	511	
7	0	0	0	0	504	511	
8	0	0	0	0	507	510	
9	0	0	0	0	508	511	
10	0	0	0	0	511	512	
11	0	0	0	0	505	512	
12	0	0	0	0	500	511	
13	0	0	0	0	496	511	
14	0	0	0	0	501	511	
15	0	0	0	0	504	511	
0	0	0	0	0	505	511	
1	0	0	0	0	508	512	
2	0	0	0	0	508	512	
3	0	0	0	0	506	512	
4	0	0	0	0	508	513	
5	0	0	0	0	505	511	
6	0	0	0	0	505	512	
7	0	0	0	0	505	512	
8	0	0	0	0	505	514	
9	0	0	0	0	505	514	
10	0	0	0	0	505	513	
11	0	0	0	0	505	513	
12	0	0	0	0	505	510	
13	0	0	0	0	502	509	
14	0	0	0	0	504	509	
15	0	0	0	0	504	512	
0	0	0	0	0	504	511	
1	0	0	0	0	508	512	
2	0	0	0	0	504	512	
3	0	0	0	0	508	514	
4	0	0	0	0	504	515	
5	0	0	0	0	507	511	
6	0	0	0	0	506	512	
7	0	0	0	0	506	512	
8	0	0	0	0	505	513	
9	0	0	0	0	504	510	
10	0	0	0	0	503	512	
11	0	0	0	0	507	512	
12	0	0	0	0	506	512	
13	0	0	0	0	505	511	
14	0	0	0	0	506	511	
15	0	0	0	0	506	511	
0	0	0	0	0	505	510	
1	0	0	0	0	504	510	
2	0	0	0	0	506	512	
3	0	0	0	0	506	510	
4	0	0	0	0	506	514	
5	0	0	0	0	506	513	
6	0	0	0	0	505	511	
7	0	0	0	0	506	512	
8	0	0	0	0	504	513	
9	0	0	0	0	504	512	
10	0	0	0	0	505	511	
11	0	0	0	0	506	510	
12	0	0	0	0	505	514	
13	0	0	0	0	504	512	
14	0	0	0	0	508	512	
15	0	0	0	0	504	513	
0	0	0	0	0	505	511	
1	0	0	0	0	505	512	
2	0	0	0	0	504	512	
3	0	0	0	0	505	512	
4	0	0	0	0	505	512	
5	0	0	0	0	508	511	
6	0	0	0	0	507	511	
7	0	0	0	0	506	511	
8	0	0	0	0	506	514	
9	0	0	0	0	511	512	
10	0	0	0	0	511	512	
11	0	0	0	0	507	510	
12	0	0	0	0	508	512	
13	0	0	0	0	505	511	
14	0	0	0	0	505	511	
15	0	0	0	0	505	512	
0	0	0	0	0	505	512	
1	0	0	0	0	505	512	
2	0	0	0	0	503	511	
3	0	0	0	0	502	513	
4	0	0	0	0	496	512	
5	0	0	0	0	504	513	
6	0	0	0	0	499	513	
7	0	0	0	0	505	512	
8	0	0	0	0	509	511	
9	0	0	0	0	506	512	
10	0	0	0	0	506	512	
11	0	0	0	0	505	511	
12	0	0	0	0	506	511	
13	0	0	0	0	509	512	
14	0	0	0	0	507	513	
15	0	0	0	0	510	511	
0	0	0	0	0	511	508	
1	0	0	0	0	509	511	
2	0	0	0	0	510	511	
3	0	0	0	0	505	511	
4	0	0	0	0	504	512	
5	0	0	0	0	498	512	
6	0	0	0	0	497	514	
7	0	0	0	0	502	512	
8	0	0	0	0	508	513	
9	0	0	0	0	508	515	
10	0	0	0	0	505	512	
11	0	0	0	0	504	511	
12	0	0	0	0	504	512	
13	0	0	0	0	505	511	
14	0	0	0	0	508	512	
15	0	0	0	0	505	510	
0	0	0	0	0	505	512	
1	0	0	0	0	507	512	
2	0	0	0	0	508	512	
3	0	0	0	0	506	513	
4	0	0	0	0	507	511	
5	0	0	0	0	505	513	
6	0	0	0	0	507	511	
7	0	0	0	0	504	513	
8	0	0	0	0	507	512	
9	0	0	0	0	502	508	
10	0	0	0	0	504	512	
11	0	0	0	0	505	513	
12	0	0	0	0	507	512	
13	0	0	0	0	506	512	
14	0	0	0	0	505	511	
15	0	0	0	0	504	514	
0	0	0	0	0	504	510	
1	0	0	0	0	505	510	
2	0	0	0	0	504	512	
3	0	0	0	0	504	511	
4	0	0	0	0	506	511	
5	0	0	0	0	505	512	
6	0	0	0	0	503	513	
7	0	0	0	0	504	514	
8	0	0	0	0	504	510	
9	0	0	0	0	503	512	
10	0	0	0	0	504	512	
11	0	0	0	0	506	512	
12	0	0	0	0	507	512	
13	0	0	0	0	505	512	
14	0	0	0	0	505	513	
15	0	0	0	0	507	512	
0	0	0	0	0	508	512	
1	0	0	0	0	506	513	
2	0	0	0	0	505	511	
3	0	0	0	0	504	513	
4	0	0	0	0	505	511	
5	0	0	0	0	504	511	
6	0	0	0	0	506	512	
7	0	0	0	0	504	511	
8	0	0	0	0	504	512	
9	0	0	0	0	505	513	
10	0	0	0	0	505	512	
11	0	0	0	0	505	512	
12	0	0	0	0	508	511	
13	0	0	0	0	507	511	
14	0	0	0	0	508	511	
15	0	0	0	0	508	513	
0	0	0	0	0	506	515	
1	0	0	0	0	505	515	
2	0	0	0	0	505	513	
3	0	0	0	0	504	511	
4	0	0	0	0	503	508	
5	0	0	0	0	504	510	
6	0	0	0	0	500	510	
7	0	0	0	0	504	510	
8	0	0	0	0	502	511	
9	0	0	0	0	502	513	
10	0	0	0	0	505	514	
11	0	0	0	0	502	511	
12	0	0	0	0	504	512	
13	0	0	0	0	509	511	
14	0	0	0	0	511	511	
15	0	0	0	0	512	510	
0	0	0	0	0	510	513	
1	0	0	0	0	508	512	
2	0	0	0	0	504	513	
3	0	0	0	0	504	514	
4	0	0	0	0	500	512	
5	0	0	0	0	504	511	
6	0	0	0	0	506	511	
7	0	0	0	0	504	511	
8	0	0	0	0	505	512	
9	0	0	0	0	508	511	
10	0	0	0	0	508	512	
11	0	0	0	0	507	512	
12	0	0	0	0	507	510	
13	0	0	0	0	506	510	
14	0	0	0	0	507	513	
15	0	0	0	0	506	512	
0	0	0	0	0	505	511	
1	0	0	0	0	504	512	
2	0	0	0	0	504	513	
3	0	0	0	0	507	514	
4	0	0	0	0	504	513	
5	0	0	0	0	505	510	
6	0	0	0	0	507	512	
7	0	0	0	0	508	512	
8	0	0	0	0	507	513	
9	0	0	0	0	503	513	
10	0	0	0	0	504	513	
11	0	0	0	0	506	513	
12	0	0	0	0	505	512	
13	0	0	0	0	507	512	
14	0	0	0	0	504	512	
15	0	0	0	0	501	511	
0	0	0	0	0	499	511	
1	0	0	0	0	504	514	
2	0	0	0	0	508	511	
3	0	0	0	0	508	514	
4	0	0	0	0	505	511	
5	0	0	0	0	504	511	
6	0	0	0	0	505	511	
7	0	0	0	0	505	512	
8	0	0	0	0	505	509	
9	0	0	0	0	505	511	
10	0	0	0	0	506	512	
11	0	0	0	0	510	513	
12	0	0	0	0	508	514	
13	0	0	0	0	508	512	
14	0	0	0	0	506	511	
15	0	0	0	0	504	511	
0	0	0	0	0	505	512	
1	0	0	0	0	504	513	
2	0	0	0	0	504	511	
3	0	0	0	0	503	511	
4	0	0	0	0	503	514	
5	0	0	0	0	503	514	
6	0	0	0	0	504	511	
7	0	0	0	0	505	513	
8	0	0	0	0	504	513	
9	0	0	0	0	506	511	
10	0	0	0	0	506	513	
11	0	0	0	0	508	512	
12	0	0	0	0	508	512	
13	0	0	0	0	511	512	
14	0	0	0	0	507	512	
15	0	0	0	0	506	510	
0	0	0	0	0	506	510	
1	0	0	0	0	507	512	
2	0	0	0	0	505	511	
3	0	0	0	0	502	511	
4	0	0	0	0	504	511	
5	0	0	0	0	503	511	
6	0	0	0	0	505	513	
7	0	0	0	0	505	512	
8	0	0	0	0	505	510	
9	0	0	0	0	505	511	
10	0	0	0	0	507	511	
11	0	0	0	0	509	513	
12	0	0	0	0	506	511	
13	0	0	0	0	507	512	
14	0	0	0	0	506	512	
15	0	0	0	0	507	511	
0	0	0	0	0	505	511	
1	0	0	0	0	502	512	
2	0	0	0	0	503	512	
3	0	0	0	0	504	513	
4	0	0	0	0	503	513	
5	0	0	0	0	500	512	
6	0	0	0	0	502	510	
7	0	0	0	0	499	512	
8	0	0	0	0	504	512	
9	0	0	0	0	509	512	
10	0	0	0	0	509	513	
11	0	0	0	0	509	513	
12	0	0	0	0	510	511	
13	0	0	0	0	508	511	
14	0	0	0	0	504	513	
15	0	0	0	0	505	513	
0	0	0	0	0	505	512	
1	0	0	0	0	508	511	
2	0	0	0	0	505	514	
3	0	0	0	0	504	511	
4	0	0	0	0	506	511	
5	0	0	0	0	507	511	
6	0	0	0	0	509	513	
7	0	0	0	0	506	511	
8	0	0	0	0	503	511	
9	0	0	0	0	503	510	
10	0	0	0	0	504	512	
11	0	0	0	0	504	511	
12	0	0	0	0	505	510	
13	0	0	0	0	507	511	
14	0	0	0	0	508	513	
15	0	0	0	0	505	513	
0	0	0	0	0	504	511	
1	0	0	0	0	506	512	
2	0	0	0	0	508	513	
3	0	0	0	0	506	512	
4	0	0	0	0	508	513	
5	0	0	0	0	505	513	
6	0	0	0	0	505	512	
7	0	0	0	0	504	512	
8	0	0	0	0	504	512	
9	0	0	0	0	506	512	
10	0	0	0	0	504	510	
11	0	0	0	0	505	512	
12	0	0	0	0	505	511	
13	0	0	0	0	505	514	
14	0	0	0	0	500	513	
15	0	0	0	0	499	512	
0	0	0	0	0	502	513	
1	0	0	0	0	505	513	
2	0	0	0	0	508	510	
3	0	0	0	0	509	511	
4	0	0	0	0	506	511	
5	0	0	0	0	509	510	
6	0	0	0	0	511	511	
7	0	0	0	0	505	512	
8	0	0	0	0	503	512	
9	0	0	0	0	502	511	
10	0	0	0	0	503	511	
11	0	0	0	0	502	510	
12	0	0	0	0	504	511	
13	0	0	0	0	510	512	
14	0	0	0	0	510	512	
15	0	0	0	0	508	511	
0	0	0	0	0	504	513	
1	0	0	0	0	501	511	
2	0	0	0	0	502	510	
3	0	0	0	0	505	512	
4	0	0	0	0	505	513	
5	0	0	0	0	504	514	
6	0	0	0	0	507	512	
7	0	0	0	0	507	514	
8	0	0	0	0	506	512	
9	0	0	0	0	508	512	
10	0	0	0	0	507	512	
11	0	0	0	0	507	511	
12	0	0	0	0	506	512	
13	0	0	0	0	507	511	
14	0	0	0	0	506	513	
15	0	0	0	0	506	512	
0	0	0	0	0	504	513	
1	0	0	0	0	502	513	
2	0	0	0	0	504	514	
3	0	0	0	0	504	512	
4	0	0	0	0	502	512	
5	0	0	0	0	505	508	
6	0	0	0	0	507	511	
7	0	0	0	0	506	512	
8	0	0	0	0	507	508	
9	0	0	0	0	508	509	
10	0	0	0	0	504	508	
11	0	0	0	0	505	508	
12	0	0	0	0	504	507	
13	0	0	0	0	505	510	
14	0	0	0	0	505	511	
15	0	0	0	0	504	510	
0	0	0	0	0	505	512	
1	0	0	0	0	505	511	
2	0	0	0	0	508	512	
3	0	0	0	0	506	513	
4	0	0	0	0	506	513	
5	0	0	0	0	507	513	
6	0	0	0	0	505	511	
7	0	0	0	0	504	511	
8	0	0	0	0	505	513	
9	0	0	0	0	506	514	
10	0	0	0	0	505	513	
11	0	0	0	0	504	513	
12	0	0	0	0	505	512	
13	0	0	0	0	507	512	
14	0	0	0	0	506	512	
15	0	0	0	0	507	514	
0	0	0	0	0	506	514	
1	0	0	0	0	507	511	
2	0	0	0	0	507	513	
3	0	0	0	0	508	510	
4	0	0	0	0	507	514	
5	0	0	0	0	505	513	
6	0	0	0	0	504	513	
7	0	0	0	0	507	512	
8	0	0	0	0	505	511	
9	0	0	0	0	506	512	
10	0	0	0	0	508	512	
11	0	0	0	0	508	512	
12	0	0	0	0	505	511	
13	0	0	0	0	504	513	
14	0	0	0	0	503	510	
15	0	0	0	0	505	511	
0	0	0	0	0	504	510	
1	0	0	0	0	505	511	
2	0	0	0	0	504	514	
3	0	0	0	0	506	511	
4	0	0	0	0	507	510	
5	0	0	0	0	505	509	
6	0	0	0	0	503	510	
7	0	0	0	0	506	509	
8	0	0	0	0	509	510	
9	0	0	0	0	506	508	
10	0	0	0	0	501	507	
11	0	0	0	0	498	508	
12	0	0	0	0	502	510	
13	0	0	0	0	503	510	
14	0	0	0	0	507	511	
15	0	0	0	0	508	513	
0	0	0	0	0	508	512	
1	0	0	0	0	508	511	
2	0	0	0	0	505	512	
3	0	0	0	0	510	512	
4	0	0	0	0	511	515	
5	0	0	0	0	506	514	
6	0	0	0	0	502	515	
7	0	0	0	0	502	514	
8	0	0	0	0	504	512	
9	0	0	0	0	507	511	
10	0	0	0	0	512	513	
11	0	0	0	0	514	513	
12	0	0	0	0	502	512	
13	0	0	0	0	503	514	
14	0	0	0	0	504	514	
15	0	0	0	0	499	515	
0	0	0	0	0	505	514	
1	0	0	0	0	507	513	
2	0	0	0	0	507	513	
3	0	0	0	0	510	511	
4	0	0	0	0	507	512	
5	0	0	0	0	508	512	
6	0	0	0	0	505	513	
7	0	0	0	0	505	515	
8	0	0	0	0	506	512	
9	0	0	0	0	505	514	
10	0	0	0	0	504	513	
11	0	0	0	0	504	512	
12	0	0	0	0	507	512	
13	0	0	0	0	507	511	
14	0	0	0	0	505	512	
15	0	0	0	0	505	512	
0	0	0	0	0	505	510	
1	0	0	0	0	504	512	
2	0	0	0	0	507	512	
3	0	0	0	0	507	512	
4	0	0	0	0	504	513	
5	0	0	0	0	504	512	
6	0	0	0	0	504	512	
7	0	0	0	0	504	511	
8	0	0	0	0	504	515	
9	0	0	0	0	505	510	
10	0	0	0	0	504	512	
11	0	0	0	0	505	513	
12	0	0	0	0	504	513	
13	0	0	0	0	505	514	
14	0	0	0	0	503	513	
15	0	0	0	0	507	512	
0	0	0	0	0	507	509	
1	0	0	0	0	507	510	
2	0	0	0	0	506	511	
3	0	0	0	0	505	513	
4	0	0	0	0	505	513	
5	0	0	0	0	504	512	
6	0	0	0	0	504	510	
7	0	0	0	0	504	510	
8	0	0	0	0	506	512	
9	0	0	0	0	506	512	
10	0	0	0	0	508	513	
11	0	0	0	0	509	513	
12	0	0	0	0	506	513	
13	0	0	0	0	505	513	
14	0	0	0	0	505	512	
15	0	0	0	0	505	513	
0	0	0	0	0	504	512	
1	0	0	0	0	506	512	
2	0	0	0	0	503	512	
3	0	0	0	0	504	511	
4	0	0	0	0	506	512	
5	0	0	0	0	505	510	
6	0	0	0	0	504	512	
7	0	0	0	0	507	512	
8	0	0	0	0	507	513	
9	0	0	0	0	507	510	
10	0	0	0	0	505	513	
11	0	0	0	0	504	512	
12	0	0	0	0	505	511	
13	0	0	0	0	507	511	
14	0	0	0	0	505	509	
15	0	0	0	0	503	512	
0	0	0	0	0	507	511	
1	0	0	0	0	507	512	
2	0	0	0	0	505	513	
3	0	0	0	0	499	512	
4	0	0	0	0	502	510	
5	0	0	0	0	504	512	
6	0	0	0	0	504	512	
7	0	0	0	0	504	511	
8	0	0	0	0	504	511	
9	0	0	0	0	504	511	
10	0	0	0	0	507	512	
11	0	0	0	0	508	510	
12	0	0	0	0	508	510	
13	0	0	0	0	507	512	
14	0	0	0	0	500	512	
15	0	0	0	0	500	511	
0	0	0	0	0	505	513	
1	0	0	0	0	503	512	
2	0	0	0	0	507	511	
3	0	0	0	0	505	510	
4	0	0	0	0	508	511	
5	0	0	0	0	511	511	
6	0	0	0	0	513	513	
7	0	0	0	0	511	512	
8	0	0	0	0	506	512	
9	0	0	0	0	507	511	
10	0	0	0	0	502	513	
11	0	0	0	0	500	511	
12	0	0	0	0	504	512	
13	0	0	0	0	505	512	
14	0	0	0	0	505	511	
15	0	0	0	0	501	513	
0	0	0	0	0	504	511	
1	0	0	0	0	497	511	
2	0	0	0	0	503	510	
3	0	0	0	0	507	510	
4	0	0	0	0	507	512	
5	0	0	0	0	507	512	
6	0	0	0	0	504	513	
7	0	0	0	0	505	512	
8	0	0	0	0	507	512	
9	0	0	0	0	505	512	
10	0	0	0	0	503	512	
11	0	0	0	0	503	511	
12	0	0	0	0	504	512	
13	0	0	0	0	507	513	
14	0	0	0	0	510	513	
15	0	0	0	0	509	512	
0	0	0	0	0	508	512	
1	0	0	0	0	510	511	
2	0	0	0	0	504	513	
3	0	0	0	0	506	511	
4	0	0	0	0	507	512	
5	0	0	0	0	505	513	
6	0	0	0	0	505	512	
7	0	0	0	0	504	512	
8	0	0	0	0	504	513	
9	0	0	0	0	506	513	
10	0	0	0	0	504	510	
11	0	0	0	0	505	511	
12	0	0	0	0	510	511	
13	0	0	0	0	509	512	
14	0	0	0	0	503	512	
15	0	0	0	0	505	511	
0	0	0	0	0	504	512	
1	0	0	0	0	504	512	
2	0	0	0	0	506	511	
3	0	0	0	0	505	510	
4	0	0	0	0	505	512	
5	0	0	0	0	508	512	
6	0	0	0	0	507	512	
7	0	0	0	0	505	513	
8	0	0	0	0	504	512	
9	0	0	0	0	506	511	
10	0	0	0	0	505	512	
11	0	0	0	0	505	513	
12	0	0	0	0	505	513	
13	0	0	0	0	504	511	
14	0	0	0	0	502	510	
15	0	0	0	0	507	511	
0	0	0	0	0	504	514	
1	0	0	0	0	506	511	
2	0	0	0	0	507	511	
3	0	0	0	0	506	511	
4	0	0	0	0	505	511	
5	0	0	0	0	503	512	
6	0	0	0	0	504	511	
7	0	0	0	0	504	512	
8	0	0	0	0	504	512	
9	0	0	0	0	508	512	
10	0	0	0	0	505	511	
11	0	0	0	0	505	512	
12	0	0	0	0	506	512	
13	0	0	0	0	507	513	
14	0	0	0	0	507	511	
15	0	0	0	0	507	512	
0	0	0	0	0	504	513	
1	0	0	0	0	505	511	
2	0	0	0	0	507	512	
3	0	0	0	0	504	512	
4	0	0	0	0	506	512	
5	0	0	0	0	506	513	
6	0	0	0	0	505	513	
7	0	0	0	0	504	511	
8	0	0	0	0	506	513	
9	0	0	0	0	507	514	
10	0	0	0	0	504	511	
11	0	0	0	0	505	511	
12	0	0	0	0	506	512	
13	0	0	0	0	507	512	
14	0	0	0	0	505	511	
15	0	0	0	0	505	511	
0	0	0	0	0	508	510	
1	0	0	0	0	510	510	
2	0	0	0	0	508	512	
3	0	0	0	0	505	513	
4	0	0	0	0	504	513	
5	0	0	0	0	500	511	
6	0	0	0	0	503	510	
7	0	0	0	0	506	510	
8	0	0	0	0	508	512	
9	0	0	0	0	507	511	
10	0	0	0	0	504	512	
11	0	0	0	0	501	512	
12	0	0	0	0	504	513	
13	0	0	0	0	505	512	
14	0	0	0	0	503	512	
15	0	0	0	0	504	513	
0	0	0	0	0	506	513	
1	0	0	0	0	505	515	
2	0	0	0	0	507	512	
3	0	0	0	0	504	511	
4	0	0	0	0	503	511	
5	0	0	0	0	503	510	
6	0	0	0	0	507	510	
7	0	0	0	0	503	513	
8	0	0	0	0	505	513	
9	0	0	0	0	506	512	
10	0	0	0	0	506	510	
11	0	0	0	0	507	513	
12	0	0	0	0	510	515	
13	0	0	0	0	506	514	
14	0	0	0	0	505	512	
15	0	0	0	0	503	513	
0	0	0	0	0	504	512	
1	0	0	0	0	507	513	
2	0	0	0	0	505	510	
3	0	0	0	0	510	511	
4	0	0	0	0	507	511	
5	0	0	0	0	505	511	
6	0	0	0	0	504	511	
7	0	0	0	0	507	512	
8	0	0	0	0	507	511	
9	0	0	0	0	506	512	
10	0	0	0	0	505	511	
11	0	0	0	0	504	514	
12	0	0	0	0	505	515	
13	0	0	0	0	506	513	
14	0	0	0	0	504	512	
15	0	0	0	0	505	512	
0	0	0	0	0	507	511	
1	0	0	0	0	507	509	
2	0	0	0	0	505	509	
3	0	0	0	0	505	510	
4	0	0	0	0	507	510	
5	0	0	0	0	506	512	
6	0	0	0	0	504	510	
7	0	0	0	0	506	511	
8	0	0	0	0	505	514	
9	0	0	0	0	504	515	
10	0	0	0	0	502	514	
11	0	0	0	0	504	512	
12	0	0	0	0	506	511	
13	0	0	0	0	504	511	
14	0	0	0	0	505	511	
15	0	0	0	0	505	513	
0	0	0	0	0	508	510	
1	0	0	0	0	505	512	
2	0	0	0	0	505	510	
3	0	0	0	0	504	511	
4	0	0	0	0	506	513	
5	0	0	0	0	507	511	
6	0	0	0	0	507	512	
7	0	0	0	0	505	513	
8	0	0	0	0	505	512	
9	0	0	0	0	507	512	
10	0	0	0	0	511	513	
11	0	0	0	0	508	510	
12	0	0	0	0	505	511	
13	0	0	0	0	502	512	
14	0	0	0	0	505	511	
15	0	0	0	0	508	512	
0	0	0	0	0	507	510	
1	0	0	0	0	504	513	
2	0	0	0	0	501	513	
3	0	0	0	0	504	512	
4	0	0	0	0	504	512	
5	0	0	0	0	505	512	
6	0	0	0	0	507	511	
7	0	0	0	0	508	513	
8	0	0	0	0	507	513	
9	0	0	0	0	505	512	
10	0	0	0	0	506	512	
11	0	0	0	0	504	512	
12	0	0	0	0	507	512	
13	0	0	0	0	505	511	
14	0	0	0	0	507	512	
15	0	0	0	0	505	511	
0	0	0	0	0	504	512	
1	0	0	0	0	507	512	
2	0	0	0	0	504	511	
3	0	0	0	0	507	511	
4	0	0	0	0	504	512	
5	0	0	0	0	507	509	
6	0	0	0	0	507	513	
7	0	0	0	0	507	513	
8	0	0	0	0	507	511	
9	0	0	0	0	505	512	
10	0	0	0	0	507	511	
11	0	0	0	0	511	513	
12	0	0	0	0	507	510	
13	0	0	0	0	508	511	
14	0	0	0	0	506	515	
15	0	0	0	0	501	512	
0	0	0	0	0	503	511	
1	0	0	0	0	497	512	
2	0	0	0	0	500	511	
3	0	0	0	0	506	511	
4	0	0	0	0	506	513	
5	0	0	0	0	506	511	
6	0	0	0	0	504	515	
7	0	0	0	0	504	513	
8	0	0	0	0	504	513	
9	0	0	0	0	507	511	
10	0	0	0	0	507	511	
11	0	0	0	0	508	514	
12	0	0	0	0	506	511	
13	0	0	0	0	506	513	
14	0	0	0	0	504	511	
15	0	0	0	0	508	511	
0	0	0	0	0	506	512	
1	0	0	0	0	503	512	
2	0	0	0	0	504	512	
3	0	0	0	0	505	511	
4	0	0	0	0	504	512	
5	0	0	0	0	506	512	
6	0	0	0	0	505	512	
7	0	0	0	0	507	512	
8	0	0	0	0	504	509	
9	0	0	0	0	507	511	
10	0	0	0	0	507	512	
11	0	0	0	0	507	513	
12	0	0	0	0	508	512	
13	0	0	0	0	507	511	
14	0	0	0	0	506	513	
15	0	0	0	0	504	510	
0	0	0	0	0	502	512	
1	0	0	0	0	506	514	
2	0	0	0	0	506	512	
3	0	0	0	0	506	512	
4	0	0	0	0	507	511	
5	0	0	0	0	507	512	
6	0	0	0	0	505	512	
7	0	0	0	0	503	512	
8	0	0	0	0	503	511	
9	0	0	0	0	500	514	
10	0	0	0	0	500	510	
11	0	0	0	0	504	513	
12	0	0	0	0	502	513	
13	0	0	0	0	510	512	
14	0	0	0	0	512	511	
15	0	0	0	0	516	511	
0	0	0	0	0	508	512	
1	0	0	0	0	503	512	
2	0	0	0	0	501	513	
3	0	0	0	0	503	513	
4	0	0	0	0	504	511	
5	0	0	0	0	504	512	
6	0	0	0	0	506	512	
7	0	0	0	0	504	509	
8	0	0	0	0	507	513	
9	0	0	0	0	504	513	
10	0	0	0	0	503	511	
11	0	0	0	0	508	511	
12	0	0	0	0	509	511	
13	0	0	0	0	507	511	
14	0	0	0	0	505	513	
15	0	0	0	0	508	511	
0	0	0	0	0	506	514	
1	0	0	0	0	507	512	
2	0	0	0	0	504	514	
3	0	0	0	0	505	512	
4	0	0	0	0	505	511	
5	0	0	0	0	504	509	
6	0	0	0	0	499	512	
7	0	0	0	0	502	514	
8	0	0	0	0	496	513	
9	0	0	0	0	501	511	
10	0	0	0	0	506	511	
11	0	0	0	0	511	511	
12	0	0	0	0	508	511	
13	0	0	0	0	508	513	
14	0	0	0	0	508	513	
15	0	0	0	0	507	512	
0	0	0	0	0	507	510	
1	0	0	0	0	506	512	
2	0	0	0	0	507	510	
3	0	0	0	0	508	510	
4	0	0	0	0	506	512	
5	0	0	0	0	504	512	
6	0	0	0	0	504	512	
7	0	0	0	0	505	511	
8	0	0	0	0	505	510	
9	0	0	0	0	505	508	
10	0	0	0	0	504	511	
11	0	0	0	0	506	514	
12	0	0	0	0	505	511	
13	0	0	0	0	503	513	
14	0	0	0	0	507	515	
15	0	0	0	0	505	511	
0	0	0	0	0	505	512	
1	0	0	0	0	507	514	
2	0	0	0	0	505	515	
3	0	0	0	0	506	512	
4	0	0	0	0	506	510	
5	0	0	0	0	506	510	
6	0	0	0	0	507	511	
7	0	0	0	0	508	512	
8	0	0	0	0	505	511	
9	0	0	0	0	502	511	
10	0	0	0	0	504	513	
11	0	0	0	0	505	510	
12	0	0	0	0	505	511	
13	0	0	0	0	505	512	
14	0	0	0	0	505	513	
15	0	0	0	0	505	514	
0	0	0	0	0	507	513	
1	0	0	0	0	506	513	
2	0	0	0	0	502	511	
3	0	0	0	0	502	509	
4	0	0	0	0	505	512	
5	0	0	0	0	508	511	
6	0	0	0	0	506	510	
7	0	0	0	0	507	514	
8	0	0	0	0	507	511	
9	0	0	0	0	510	513	
10	0	0	0	0	509	510	
11	0	0	0	0	504	510	
12	0	0	0	0	500	510	
13	0	0	0	0	502	511	
14	0	0	0	0	501	512	
15	0	0	0	0	504	511	
0	0	0	0	0	507	513	
1	0	0	0	0	503	513	
2	0	0	0	0	506	513	
3	0	0	0	0	505	514	
4	0	0	0	0	504	511	
5	0	0	0	0	505	516	
6	0	0	0	0	506	513	
7	0	0	0	0	507	511	
8	0	0	0	0	507	511	
9	0	0	0	0	508	512	
10	0	0	0	0	509	511	
11	0	0	0	0	505	512	
12	0	0	0	0	506	511	
13	0	0	0	0	504	511	
14	0	0	0	0	506	512	
15	0	0	0	0	508	511	
0	0	0	0	0	504	512	
1	0	0	0	0	507	512	
2	0	0	0	0	509	512	
3	0	0	0	0	504	512	
4	0	0	0	0	497	512	
5	0	0	0	0	500	511	
6	0	0	0	0	498	511	
7	0	0	0	0	501	510	
8	0	0	0	0	507	512	
9	0	0	0	0	507	512	
10	0	0	0	0	506	511	
11	0	0	0	0	506	511	
12	0	0	0	0	507	513	
13	0	0	0	0	508	511	
14	0	0	0	0	508	512	
15	0	0	0	0	505	515	
0	0	0	0	0	505	514	
1	0	0	0	0	505	511	
2	0	0	0	0	504	511	
3	0	0	0	0	507	512	
4	0	0	0	0	506	513	
5	0	0	0	0	507	513	
6	0	0	0	0	508	513	
7	0	0	0	0	505	512	
8	0	0	0	0	507	512	
9	0	0	0	0	506	511	
10	0	0	0	0	506	513	
11	0	0	0	0	505	510	
12	0	0	0	0	503	513	
13	0	0	0	0	504	513	
14	0	0	0	0	504	512	
15	0	0	0	0	505	511	
0	0	0	0	0	507	511	
1	0	0	0	0	508	513	
2	0	0	0	0	505	511	
3	0	0	0	0	504	512	
4	0	0	0	0	504	512	
5	0	0	0	0	505	512	
6	0	0	0	0	508	510	
7	0	0	0	0	508	512	
8	0	0	0	0	510	511	
9	0	0	0	0	507	511	
10	0	0	0	0	505	512	
11	0	0	0	0	507	511	
12	0	0	0	0	504	514	
13	0	0	0	0	505	512	
14	0	0	0	0	507	514	
15	0	0	0	0	505	512	
0	0	0	0	0	505	511	
1	0	0	0	0	504	511	
2	0	0	0	0	503	511	
3	0	0	0	0	504	512	
4	0	0	0	0	503	511	
5	0	0	0	0	503	511	
6	0	0	0	0	508	513	
7	0	0	0	0	508	511	
8	0	0	0	0	505	513	
9	0	0	0	0	502	511	
10	0	0	0	0	504	511	
11	0	0	0	0	505	513	
12	0	0	0	0	506	515	
13	0	0	0	0	508	511	
14	0	0	0	0	509	511	
15	0	0	0	0	506	509	
0	0	0	0	0	507	511	
1	0	0	0	0	505	513	
2	0	0	0	0	505	510	
3	0	0	0	0	505	513	
4	0	0	0	0	503	511	
5	0	0	0	0	504	512	
6	0	0	0	0	505	512	
7	0	0	0	0	508	512	
8	0	0	0	0	501	514	
9	0	0	0	0	502	511	
10	0	0	0	0	499	511	
11	0	0	0	0	505	511	
12	0	0	0	0	505	512	
13	0	0	0	0	504	512	
14	0	0	0	0	504	511	
15	0	0	0	0	504	512	
0	0	0	0	0	509	511	
1	0	0	0	0	511	513	
2	0	0	0	0	507	510	
3	0	0	0	0	506	510	
4	0	0	0	0	507	513	
5	0	0	0	0	505	512	
6	0	0	0	0	505	513	
7	0	0	0	0	506	515	
8	0	0	0	0	508	513	
9	0	0	0	0	506	512	
10	0	0	0	0	504	513	
11	0	0	0	0	504	513	
12	0	0	0	0	505	512	
13	0	0	0	0	504	513	
14	0	0	0	0	505	512	
15	0	0	0	0	504	510	
0	0	0	0	0	505	512	
1	0	0	0	0	508	511	
2	0	0	0	0	505	511	
3	0	0	0	0	505	511	
4	0	0	0	0	504	513	
5	0	0	0	0	506	512	
6	0	0	0	0	507	512	
7	0	0	0	0	507	513	
8	0	0	0	0	504	513	
9	0	0	0	0	506	513	
10	0	0	0	0	507	511	
11	0	0	0	0	505	511	
12	0	0	0	0	504	511	
13	0	0	0	0	501	510	
14	0	0	0	0	503	510	
15	0	0	0	0	504	508	
0	0	0	0	0	505	513	
1	0	0	0	0	504	515	
2	0	0	0	0	508	513	
3	0	0	0	0	507	513	
4	0	0	0	0	504	512	
5	0	0	0	0	510	513	
6	0	0	0	0	510	513	
7	0	0	0	0	507	511	
8	0	0	0	0	504	511	
9	0	0	0	0	507	511	
10	0	0	0	0	507	510	
11	0	0	0	0	504	512	
12	0	0	0	0	501	511	
13	0	0	0	0	504	510	
14	0	0	0	0	509	513	
15	0	0	0	0	506	512	
0	0	0	0	0	505	514	
1	0	0	0	0	505	511	
2	0	0	0	0	506	512	
3	0	0	0	0	506	511	
4	0	0	0	0	504	512	
5	0	0	0	0	505	513	
6	0	0	0	0	507	511	
7	0	0	0	0	507	512	
8	0	0	0	0	499	511	
9	0	0	0	0	499	512	
10	0	0	0	0	502	512	
11	0	0	0	0	508	512	
12	0	0	0	0	504	510	
13	0	0	0	0	508	512	
14	0	0	0	0	512	510	
15	0	0	0	0	509	513	
0	0	0	0	0	508	513	
1	0	0	0	0	505	513	
2	0	0	0	0	505	511	
3	0	0	0	0	505	512	
4	0	0	0	0	503	511	
5	0	0	0	0	499	512	
6	0	0	0	0	500	512	
7	0	0	0	0	499	510	
8	0	0	0	0	504	510	
9	0	0	0	0	508	512	
10	0	0	0	0	508	512	
11	0	0	0	0	508	512	
12	0	0	0	0	508	511	
13	0	0	0	0	507	511	
14	0	0	0	0	506	510	
15	0	0	0	0	507	513	
0	0	0	0	0	507	511	
1	0	0	0	0	506	511	
2	0	0	0	0	508	512	
3	0	0	0	0	505	513	
4	0	0	0	0	506	513	
5	0	0	0	0	506	513	
6	0	0	0	0	507	511	
7	0	0	0	0	507	512	
8	0	0	0	0	507	511	
9	0	0	0	0	505	511	
10	0	0	0	0	503	513	
11	0	0	0	0	504	511	
12	0	0	0	0	503	513	
13	0	0	0	0	505	513	
14	0	0	0	0	504	513	
15	0	0	0	0	504	512	
0	0	0	0	0	506	511	
1	0	0	0	0	507	511	
2	0	0	0	0	505	511	
3	0	0	0	0	506	514	
4	0	0	0	0	505	514	
5	0	0	0	0	508	510	
6	0	0	0	0	508	511	
7	0	0	0	0	504	509	
8	0	0	0	0	507	511	
9	0	0	0	0	503	511	
10	0	0	0	0	504	512	
11	0	0	0	0	504	511	
12	0	0	0	0	502	510	
13	0	0	0	0	504	515	
14	0	0	0	0	502	513	
15	0	0	0	0	504	514	
0	0	0	0	0	508	514	
1	0	0	0	0	512	512	
2	0	0	0	0	510	513	
3	0	0	0	0	506	511	
4	0	0	0	0	505	512	
5	0	0	0	0	505	510	
6	0	0	0	0	505	512	
7	0	0	0	0	509	512	
8	0	0	0	0	506	512	
9	0	0	0	0	506	511	
10	0	0	0	0	505	513	
11	0	0	0	0	503	512	
12	0	0	0	0	503	512	
13	0	0	0	0	507	512	
14	0	0	0	0	508	511	
15	0	0	0	0	506	513	
0	0	0	0	0	504	511	
1	0	0	0	0	504	511	
2	0	0	0	0	505	512	
3	0	0	0	0	503	512	
4	0	0	0	0	503	511	
5	0	0	0	0	503	512	
6	0	0	0	0	504	511	
7	0	0	0	0	507	511	
8	0	0	0	0	511	513	
9	0	0	0	0	508	511	
10	0	0	0	0	506	513	
11	0	0	0	0	504	513	
12	0	0	0	0	504	513	
13	0	0	0	0	507	511	
14	0	0	0	0	507	511	
15	0	0	0	0	507	511	
0	0	0	0	0	506	514	
1	0	0	0	0	509	512	
2	0	0	0	0	504	513	
3	0	0	0	0	505	513	
4	0	0	0	0	512	512	
5	0	0	0	0	511	512	
6	0	0	0	0	499	512	
7	0	0	0	0	496	510	
8	0	0	0	0	497	511	
9	0	0	0	0	499	512	
10	0	0	0	0	499	511	
11	0	0	0	0	504	511	
12	0	0	0	0	503	510	
13	0	0	0	0	509	512	
14	0	0	0	0	510	511	
15	0	0	0	0	506	511	
0	0	0	0	0	504	513	
1	0	0	0	0	508	511	
2	0	0	0	0	507	511	
3	0	0	0	0	508	512	
4	0	0	0	0	505	513	
5	0	0	0	0	503	513	
6	0	0	0	0	504	512	
7	0	0	0	0	506	513	
8	0	0	0	0	508	512	
9	0	0	0	0	507	510	
10	0	0	0	0	508	512	
11	0	0	0	0	504	510	
12	0	0	0	0	505	511	
13	0	0	0	0	507	512	
14	0	0	0	0	507	513	
15	0	0	0	0	504	511	
0	0	0	0	0	505	511	
1	0	0	0	0	504	511	
2	0	0	0	0	505	511	
3	0	0	0	0	505	511	
4	0	0	0	0	504	511	
5	0	0	0	0	504	512	
6	0	0	0	0	504	513	
7	0	0	0	0	508	512	
8	0	0	0	0	507	511	
9	0	0	0	0	507	514	
10	0	0	0	0	508	514	
11	0	0	0	0	510	511	
12	0	0	0	0	510	514	
13	0	0	0	0	507	512	
14	0	0	0	0	505	512	
15	0	0	0	0	504	512	
0	0	0	0	0	507	513	
1	0	0	0	0	503	512	
2	0	0	0	0	501	512	
3	0	0	0	0	501	512	
4	0	0	0	0	506	513	
5	0	0	0	0	508	512	
6	0	0	0	0	510	510	
7	0	0	0	0	509	511	
8	0	0	0	0	508	512	
9	0	0	0	0	504	510	
10	0	0	0	0	505	510	
11	0	0	0	0	509	511	
12	0	0	0	0	509	513	
13	0	0	0	0	508	512	
14	0	0	0	0	504	511	
15	0	0	0	0	506	515	
0	0	0	0	0	497	510	
1	0	0	0	0	497	510	
2	0	0	0	0	501	511	
3	0	0	0	0	499	510	
4	0	0	0	0	499	511	
5	0	0	0	0	508	512	
6	0	0	0	0	510	512	
7	0	0	0	0	508	513	
8	0	0	0	0	507	515	
9	0	0	0	0	505	513	
10	0	0	0	0	505	511	
11	0	0	0	0	505	510	
12	0	0	0	0	506	513	
13	0	0	0	0	507	512	
14	0	0	0	0	506	513	
15	0	0	0	0	508	511	
0	0	0	0	0	507	511	
1	0	0	0	0	505	511	
2	0	0	0	0	506	511	
3	0	0	0	0	505	512	
4	0	0	0	0	508	512	
5	0	0	0	0	505	511	
6	0	0	0	0	508	510	
7	0	0	0	0	505	512	
8	0	0	0	0	504	512	
9	0	0	0	0	505	512	
10	0	0	0	0	500	511	
11	0	0	0	0	502	511	
12	0	0	0	0	505	510	
13	0	0	0	0	506	512	
14	0	0	0	0	508	513	
15	0	0	0	0	509	512	
0	0	0	0	0	508	514	
1	0	0	0	0	504	512	
2	0	0	0	0	505	512	
3	0	0	0	0	505	512	
4	0	0	0	0	506	511	
5	0	0	0	0	501	513	
6	0	0	0	0	502	511	
7	0	0	0	0	503	511	
8	0	0	0	0	504	513	
9	0	0	0	0	507	512	
10	0	0	0	0	506	511	
11	0	0	0	0	505	511	
12	0	0	0	0	502	512	
13	0	0	0	0	504	511	
14	0	0	0	0	513	513	
15	0	0	0	0	508	514	
0	0	0	0	0	507	514	
1	0	0	0	0	514	514	
2	0	0	0	0	508	510	
3	0	0	0	0	501	512	
4	0	0	0	0	503	511	
5	0	0	0	0	504	511	
6	0	0	0	0	504	512	
7	0	0	0	0	503	511	
8	0	0	0	0	507	511	
9	0	0	0	0	512	513	
10	0	0	0	0	512	511	
11	0	0	0	0	508	512	
12	0	0	0	0	502	508	
13	0	0	0	0	500	510	
14	0	0	0	0	499	511	
15	0	0	0	0	504	513	
0	0	0	0	0	509	515	
1	0	0	0	0	515	513	
2	0	0	0	0	514	515	
3	0	0	0	0	504	511	
4	0	0	0	0	499	511	
5	0	0	0	0	492	509	
6	0	0	0	0	496	510	
7	0	0	0	0	502	509	
8	0	0	0	0	504	511	
9	0	0	0	0	508	509	
10	0	0	0	0	510	510	
11	0	0	0	0	509	513	
12	0	0	0	0	509	512	
13	0	0	0	0	508	513	
14	0	0	0	0	507	513	
15	0	0	0	0	508	513	
0	0	0	0	0	504	513	
1	0	0	0	0	505	512	
2	0	0	0	0	503	513	
3	0	0	0	0	502	512	
4	0	0	0	0	504	510	
5	0	0	0	0	508	511	
6	0	0	0	0	507	513	
7	0	0	0	0	508	513	
8	0	0	0	0	507	513	
9	0	0	0	0	505	513	
10	0	0	0	0	501	512	
11	0	0	0	0	506	508	
12	0	0	0	0	503	509	
13	0	0	0	0	503	509	
14	0	0	0	0	506	510	
15	0	0	0	0	507	512	
0	0	0	0	0	508	513	
1	0	0	0	0	505	512	
2	0	0	0	0	508	513	
3	0	0	0	0	508	512	
4	0	0	0	0	506	513	
5	0	0	0	0	508	513	
6	0	0	0	0	504	511	
7	0	0	0	0	504	514	
8	0	0	0	0	502	513	
9	0	0	0	0	499	512	
10	0	0	0	0	503	513	
11	0	0	0	0	513	512	
12	0	0	0	0	511	511	
13	0	0	0	0	507	512	
14	0	0	0	0	506	510	
15	0	0	0	0	504	511	
0	0	0	0	0	503	512	
1	0	0	0	0	504	510	
2	0	0	0	0	506	513	
3	0	0	0	0	503	513	
4	0	0	0	0	504	511	
5	0	0	0	0	507	511	
6	0	0	0	0	507	512	
7	0	0	0	0	508	513	
8	0	0	0	0	506	512	
9	0	0	0	0	506	511	
10	0	0	0	0	507	511	
11	0	0	0	0	505	515	
12	0	0	0	0	503	513	
13	0	0	0	0	504	512	
14	0	0	0	0	504	511	
15	0	0	0	0	505	512	
0	0	0	0	0	509	513	
1	0	0	0	0	509	512	
2	0	0	0	0	506	512	
3	0	0	0	0	506	510	
4	0	0	0	0	512	514	
5	0	0	0	0	508	514	
6	0	0	0	0	504	513	
7	0	0	0	0	501	513	
8	0	0	0	0	504	512	
9	0	0	0	0	499	511	
10	0	0	0	0	498	511	
11	0	0	0	0	501	511	
12	0	0	0	0	502	512	
13	0	0	0	0	508	510	
14	0	0	0	0	512	512	
15	0	0	0	0	510	510	
0	0	0	0	0	506	512	
1	0	0	0	0	502	511	
2	0	0	0	0	500	511	
3	0	0	0	0	504	513	
4	0	0	0	0	505	513	
5	0	0	0	0	507	513	
6	0	0	0	0	508	511	
7	0	0	0	0	508	511	
8	0	0	0	0	505	510	
9	0	0	0	0	506	508	
10	0	0	0	0	517	512	
11	0	0	0	0	525	515	
12	0	0	0	0	519	514	
13	0	0	0	0	516	514	
14	0	0	0	0	513	509	
15	0	0	0	0	511	514	
0	0	0	0	0	494	512	
1	0	0	0	0	487	510	
2	0	0	0	0	488	513	
3	0	0	0	0	495	512	
4	0	0	0	0	502	511	
5	0	0	0	0	499	512	
6	0	0	0	0	499	512	
7	0	0	0	0	485	508	
8	0	0	0	0	478	510	
9	0	0	0	0	496	514	
10	0	0	0	0	515	514	
11	0	0	0	0	521	512	
12	0	0	0	0	530	509	
13	0	0	0	0	524	510	
14	0	0	0	0	509	511	
15	0	0	0	0	503	513	
0	0	0	0	0	502	513	
1	0	0	0	0	502	515	
2	0	0	0	0	506	513	
3	0	0	0	0	508	513	
4	0	0	0	0	503	511	
5	0	0	0	0	502	509	
6	0	0	0	0	499	511	
7	0	0	0	0	506	513	
8	0	0	0	0	510	514	
9	0	0	0	0	508	513	
10	0	0	0	0	509	511	
11	0	0	0	0	512	510	
12	0	0	0	0	521	511	
13	0	0	0	0	527	513	
14	0	0	0	0	508	512	
15	0	0	0	0	492	512	
0	0	0	0	0	480	512	
1	0	0	0	0	483	510	
2	0	0	0	0	496	510	
3	0	0	0	0	506	510	
4	0	0	0	0	505	511	
5	0	0	0	0	504	511	
6	0	0	0	0	509	511	
7	0	0	0	0	513	512	
8	0	0	0	0	510	513	
9	0	0	0	0	506	512	
10	0	0	0	0	500	511	
11	0	0	0	0	494	513	
12	0	0	0	0	498	513	
13	0	0	0	0	504	511	
14	0	0	0	0	510	512	
15	0	0	0	0	515	512	
0	0	0	0	0	513	512	
1	0	0	0	0	516	512	
2	0	0	0	0	516	512	
3	0	0	0	0	512	513	
4	0	0	0	0	506	511	
5	0	0	0	0	513	513	
6	0	0	0	0	522	514	
7	0	0	0	0	525	513	
8	0	0	0	0	527	513	
9	0	0	0	0	480	511	
10	0	0	0	0	470	513	
11	0	0	0	0	473	511	
12	0	0	0	0	480	511	
13	0	0	0	0	495	511	
14	0	0	0	0	503	512	
15	0	0	0	0	505	513	
0	0	0	0	0	507	512	
1	0	0	0	0	508	513	
2	0	0	0	0	511	512	
3	0	0	0	0	515	512	
4	0	0	0	0	516	513	
5	0	0	0	0	519	513	
6	0	0	0	0	513	513	
7	0	0	0	0	502	512	
8	0	0	0	0	495	510	
9	0	0	0	0	496	512	
10	0	0	0	0	500	511	
11	0	0	0	0	508	511	
12	0	0	0	0	507	508	
13	0	0	0	0	508	511	
14	0	0	0	0	500	513	
15	0	0	0	0	496	513	
0	0	0	0	0	492	513	
1	0	0	0	0	501	514	
2	0	0	0	0	509	515	
3	0	0	0	0	510	513	
4	0	0	0	0	513	512	
5	0	0	0	0	521	509	
6	0	0	0	0	552	504	
7	0	0	0	0	594	507	
8	0	0	0	0	577	508	
9	0	0	0	0	531	510	
10	0	0	0	0	515	508	
11	0	0	0	0	502	507	
12	0	0	0	0	503	511	
13	0	0	0	0	469	510	
14	0	0	0	0	454	513	
15	0	0	0	0	406	512	
0	0	0	0	0	434	518	
1	0	0	0	0	478	526	
2	0	0	0	0	486	516	
3	0	0	0	0	488	511	
4	0	0	0	0	459	512	
5	0	0	0	0	507	512	
6	0	0	0	0	535	511	
7	0	0	0	0	523	511	
8	0	0	0	0	515	510	
9	0	0	0	0	508	511	
10	0	0	0	0	505	511	
11	0	0	0	0	504	514	
12	0	0	0	0	504	513	
13	0	0	0	0	504	514	
14	0	0	0	0	508	515	
15	0	0	0	0	517	513	
0	0	0	0	0	530	512	
1	0	0	0	0	541	514	
2	0	0	0	0	527	513	
3	0	0	0	0	512	512	
4	0	0	0	0	505	511	
5	0	0	0	0	496	510	
6	0	0	0	0	505	509	
7	0	0	0	0	515	512	
8	0	0	0	0	510	511	
9	0	0	0	0	498	513	
10	0	0	0	0	490	513	
11	0	0	0	0	502	513	
12	0	0	0	0	511	511	
13	0	0	0	0	508	513	
14	0	0	0	0	504	513	
15	0	0	0	0	491	508	
0	0	0	0	0	489	511	
1	0	0	0	0	499	515	
2	0	0	0	0	508	514	
3	0	0	0	0	521	512	
4	0	0	0	0	520	513	
5	0	0	0	0	507	513	
6	0	0	0	0	510	511	
7	0	0	0	0	501	508	
8	0	0	0	0	497	508	
9	0	0	0	0	478	508	
10	0	0	0	0	482	512	
11	0	0	0	0	487	514	
12	0	0	0	0	499	517	
13	0	0	0	0	516	515	
14	0	0	0	0	529	513	
15	0	0	0	0	539	513	
0	0	0	0	0	548	510	
1	0	0	0	0	591	511	
2	0	0	0	0	604	507	
3	0	0	0	0	519	511	
4	0	0	0	0	475	514	
5	0	0	0	0	462	512	
6	0	0	0	0	387	515	
7	0	0	0	0	468	518	
8	0	0	0	0	492	513	
9	0	0	0	0	468	509	
10	0	0	0	0	473	510	
11	0	0	0	0	495	507	
12	0	0	0	0	517	508	
13	0	0	0	0	528	507	
14	0	0	0	0	524	511	
15	0	0	0	0	529	513	
0	0	0	0	0	530	513	
1	0	0	0	0	521	510	
2	0	0	0	0	522	512	
3	0	0	0	0	524	510	
4	0	0	0	0	477	512	
5	0	0	0	0	458	514	
6	0	0	0	0	463	513	
7	0	0	0	0	490	514	
8	0	0	0	0	529	516	
9	0	0	0	0	528	515	
10	0	0	0	0	506	510	
11	0	0	0	0	483	507	
12	0	0	0	0	486	509	
13	0	0	0	0	496	514	
14	0	0	0	0	499	516	
15	0	0	0	0	479	514	
0	0	0	0	0	482	513	
1	0	0	0	0	525	512	
2	0	0	0	0	558	515	
3	0	0	0	0	573	513	
4	0	0	0	0	529	512	
5	0	0	0	0	521	512	
6	0	0	0	0	526	512	
7	0	0	0	0	523	513	
8	0	0	0	0	531	514	
9	0	0	0	0	507	506	
10	0	0	0	0	480	507	
11	0	0	0	0	478	508	
12	0	0	0	0	438	512	
13	0	0	0	0	441	512	
14	0	0	0	0	480	511	
15	0	0	0	0	517	512	
0	0	0	0	0	544	514	
1	0	0	0	0	554	515	
2	0	0	0	0	546	513	
3	0	0	0	0	496	513	
4	0	0	0	0	498	515	
5	0	0	0	0	494	510	
6	0	0	0	0	478	504	
7	0	0	0	0	464	504	
8	0	0	0	0	463	507	
9	0	0	0	0	512	510	
10	0	0	0	0	549	512	
11	0	0	0	0	538	512	
12	0	0	0	0	475	510	
13	0	0	0	0	463	515	
14	0	0	0	0	475	519	
15	0	0	0	0	487	519	
0	0	0	0	0	508	514	
1	0	0	0	0	522	515	
2	0	0	0	0	550	514	
3	0	0	0	0	589	512	
4	0	0	0	0	510	508	
5	0	0	0	0	578	507	
6	0	0	0	0	552	511	
7	0	0	0	0	490	509	
8	0	0	0	0	477	511	
9	0	0	0	0	483	511	
10	0	0	0	0	488	508	
11	0	0	0	0	509	510	
12	0	0	0	0	531	512	
13	0	0	0	0	535	515	
14	0	0	0	0	549	515	
15	0	0	0	0	546	520	
0	0	0	0	0	558	519	
1	0	0	0	0	559	511	
2	0	0	0	0	475	515	
3	0	0	0	0	371	518	
4	0	0	0	0	355	509	
5	0	0	0	0	435	511	
6	0	0	0	0	503	504	
7	0	0	0	0	519	495	
8	0	0	0	0	514	500	
9	0	0	0	0	497	508	
10	0	0	0	0	443	514	
11	0	0	0	0	437	512	
12	0	0	0	0	527	513	
13	0	0	0	0	572	517	
14	0	0	0	0	563	517	
15	0	0	0	0	561	514	
0	0	0	0	0	546	513	
1	0	0	0	0	525	515	
2	0	0	0	0	490	511	
3	0	0	0	0	532	510	
4	0	0	0	0	554	515	
5	0	0	0	0	556	518	
6	0	0	0	0	543	515	
7	0	0	0	0	542	516	
8	0	0	0	0	524	515	
9	0	0	0	0	387	512	
10	0	0	0	0	301	507	
11	0	0	0	0	364	504	
12	0	0	0	0	443	506	
13	0	0	0	0	498	504	
14	0	0	0	0	540	511	
15	0	0	0	0	512	512	
0	0	0	0	0	468	515	
1	0	0	0	0	508	514	
2	0	0	0	0	567	513	
3	0	0	0	0	591	513	
4	0	0	0	0	605	515	
5	0	0	0	0	569	514	
6	0	0	0	0	540	507	
7	0	0	0	0	531	501	
8	0	0	0	0	507	505	
9	0	0	0	0	455	513	
10	0	0	0	0	424	510	
11	0	0	0	0	417	505	
12	0	0	0	0	474	519	
13	0	0	0	0	545	529	
14	0	0	0	0	609	514	
15	0	0	0	0	652	511	
0	0	0	0	0	616	512	
1	0	0	0	0	502	513	
2	0	0	0	0	467	511	
3	0	0	0	0	337	507	
4	0	0	0	0	346	508	
5	0	0	0	0	437	511	
6	0	0	0	0	519	514	
7	0	0	0	0	540	527	
8	0	0	0	0	556	528	
9	0	0	0	0	550	514	
10	0	0	0	0	530	505	
11	0	0	0	0	520	511	
12	0	0	0	0	493	510	
13	0	0	0	0	446	506	
14	0	0	0	0	480	510	
15	0	0	0	0	474	511	
0	0	0	0	0	479	513	
1	0	0	0	0	505	512	
2	0	0	0	0	545	508	
3	0	0	0	0	576	511	
4	0	0	0	0	592	505	
5	0	0	0	0	597	507	
6	0	0	0	0	610	514	
7	0	0	0	0	541	517	
8	0	0	0	0	361	523	
9	0	0	0	0	307	519	
10	0	0	0	0	395	515	
11	0	0	0	0	438	509	
12	0	0	0	0	499	503	
13	0	0	0	0	527	502	
14	0	0	0	0	537	502	
15	0	0	0	0	551	508	
0	0	0	0	0	582	512	
1	0	0	0	0	584	511	
2	0	0	0	0	564	519	
3	0	0	0	0	540	510	
4	0	0	0	0	543	508	
5	0	0	0	0	508	519	
6	0	0	0	0	414	518	
7	0	0	0	0	364	516	
8	0	0	0	0	432	519	
9	0	0	0	0	477	517	
10	0	0	0	0	518	507	
11	0	0	0	0	601	497	
12	0	0	0	0	675	500	
13	0	0	0	0	587	507	
14	0	0	0	0	436	506	
15	0	0	0	0	468	511	
0	0	0	0	0	527	515	
1	0	0	0	0	515	516	
2	0	0	0	0	519	516	
3	0	0	0	0	474	516	
4	0	0	0	0	462	512	
5	0	0	0	0	489	516	
6	0	0	0	0	486	515	
7	0	0	0	0	496	512	
8	0	0	0	0	455	511	
9	0	0	0	0	495	514	
10	0	0	0	0	511	512	
11	0	0	0	0	455	511	
12	0	0	0	0	467	513	
13	0	0	0	0	495	514	
14	0	0	0	0	528	515	
15	0	0	0	0	551	516	
0	0	0	0	0	576	512	
1	0	0	0	0	586	504	
2	0	0	0	0	600	507	
3	0	0	0	0	534	510	
4	0	0	0	0	368	510	
5	0	0	0	0	410	512	
6	0	0	0	0	469	514	
7	0	0	0	0	488	518	
8	0	0	0	0	428	520	
9	0	0	0	0	483	517	
10	0	0	0	0	579	512	
11	0	0	0	0	572	498	
12	0	0	0	0	555	500	
13	0	0	0	0	556	504	
14	0	0	0	0	499	510	
15	0	0	0	0	504	517	
0	0	0	0	0	512	521	
1	0	0	0	0	456	515	
2	0	0	0	0	499	514	
3	0	0	0	0	507	513	
4	0	0	0	0	510	513	
5	0	0	0	0	507	517	
6	0	0	0	0	524	512	
7	0	0	0	0	545	511	
8	0	0	0	0	510	499	
9	0	0	0	0	486	495	
10	0	0	0	0	451	505	
11	0	0	0	0	460	516	
12	0	0	0	0	483	520	
13	0	0	0	0	519	519	
14	0	0	0	0	531	516	
15	0	0	0	0	542	515	
0	0	0	0	0	572	520	
1	0	0	0	0	550	516	
2	0	0	0	0	483	515	
3	0	0	0	0	451	512	
4	0	0	0	0	412	512	
5	0	0	0	0	570	512	
6	0	0	0	0	623	503	
7	0	0	0	0	621	508	
8	0	0	0	0	566	508	
9	0	0	0	0	447	502	
10	0	0	0	0	390	499	
11	0	0	0	0	500	507	
12	0	0	0	0	542	513	
13	0	0	0	0	447	512	
14	0	0	0	0	262	515	
15	0	0	0	0	365	513	
0	0	0	0	0	512	516	
1	0	0	0	0	549	521	
2	0	0	0	0	521	522	
3	0	0	0	0	492	511	
4	0	0	0	0	512	510	
5	0	0	0	0	508	514	
6	0	0	0	0	579	509	
7	0	0	0	0	604	509	
8	0	0	0	0	471	512	
9	0	0	0	0	459	511	
10	0	0	0	0	521	510	
11	0	0	0	0	573	515	
12	0	0	0	0	517	510	
13	0	0	0	0	487	508	
14	0	0	0	0	437	507	
15	0	0	0	0	494	513	
0	0	0	0	0	503	518	
1	0	0	0	0	494	519	
2	0	0	0	0	500	524	
3	0	0	0	0	492	521	
4	0	0	0	0	523	520	
5	0	0	0	0	561	518	
6	0	0	0	0	620	505	
7	0	0	0	0	629	508	
8	0	0	0	0	597	515	
9	0	0	0	0	596	509	
10	0	0	0	0	439	495	
11	0	0	0	0	478	502	
12	0	0	0	0	514	494	
13	0	0	0	0	367	499	
14	0	0	0	0	448	513	
15	0	0	0	0	511	516	
0	0	0	0	0	481	504	
1	0	0	0	0	435	507	
2	0	0	0	0	444	513	
3	0	0	0	0	463	510	
4	0	0	0	0	504	511	
5	0	0	0	0	480	515	
6	0	0	0	0	476	521	
7	0	0	0	0	476	519	
8	0	0	0	0	485	520	
9	0	0	0	0	496	520	
10	0	0	0	0	503	516	
11	0	0	0	0	548	514	
12	0	0	0	0	596	515	
13	0	0	0	0	603	516	
14	0	0	0	0	615	519	
15	0	0	0	0	619	509	
0	0	0	0	0	663	513	
1	0	0	0	0	455	514	
2	0	0	0	0	420	496	
3	0	0	0	0	247	496	
4	0	0	0	0	248	503	
5	0	0	0	0	379	509	
6	0	0	0	0	518	507	
7	0	0	0	0	575	510	
8	0	0	0	0	630	515	
9	0	0	0	0	648	519	
10	0	0	0	0	502	518	
11	0	0	0	0	477	519	
12	0	0	0	0	531	516	
13	0	0	0	0	588	517	
14	0	0	0	0	592	515	
15	0	0	0	0	536	510	
0	0	0	0	0	552	505	
1	0	0	0	0	553	502	
2	0	0	0	0	520	503	
3	0	0	0	0	487	509	
4	0	0	0	0	361	515	
5	0	0	0	0	368	517	
6	0	0	0	0	460	514	
7	0	0	0	0	499	518	
8	0	0	0	0	551	519	
9	0	0	0	0	499	519	
10	0	0	0	0	435	527	
11	0	0	0	0	526	526	
12	0	0	0	0	570	508	
13	0	0	0	0	366	506	
14	0	0	0	0	270	497	
15	0	0	0	0	454	506	
0	0	0	0	0	620	513	
1	0	0	0	0	671	505	
2	0	0	0	0	671	502	
3	0	0	0	0	632	495	
4	0	0	0	0	532	504	
5	0	0	0	0	520	510	
6	0	0	0	0	425	506	
7	0	0	0	0	489	517	
8	0	0	0	0	480	521	
9	0	0	0	0	416	520	
10	0	0	0	0	410	525	
11	0	0	0	0	473	519	
12	0	0	0	0	483	504	
13	0	0	0	0	451	500	
14	0	0	0	0	472	511	
15	0	0	0	0	509	504	
0	0	0	0	0	526	510	
1	0	0	0	0	577	512	
2	0	0	0	0	659	509	
3	0	0	0	0	551	510	
4	0	0	0	0	551	524	
5	0	0	0	0	627	524	
6	0	0	0	0	687	531	
7	0	0	0	0	665	530	
8	0	0	0	0	492	513	
9	0	0	0	0	295	491	
10	0	0	0	0	265	503	
11	0	0	0	0	365	512	
12	0	0	0	0	416	521	
13	0	0	0	0	458	515	
14	0	0	0	0	493	505	
15	0	0	0	0	518	500	
0	0	0	0	0	556	505	
1	0	0	0	0	545	503	
2	0	0	0	0	544	507	
3	0	0	0	0	575	514	
4	0	0	0	0	539	514	
5	0	0	0	0	360	509	
6	0	0	0	0	408	511	
7	0	0	0	0	525	513	
8	0	0	0	0	550	516	
9	0	0	0	0	504	516	
10	0	0	0	0	517	516	
11	0	0	0	0	559	517	
12	0	0	0	0	592	515	
13	0	0	0	0	583	519	
14	0	0	0	0	563	516	
15	0	0	0	0	543	514	
0	0	0	0	0	497	508	
1	0	0	0	0	443	504	
2	0	0	0	0	456	511	
3	0	0	0	0	432	514	
4	0	0	0	0	440	511	
5	0	0	0	0	468	507	
6	0	0	0	0	498	505	
7	0	0	0	0	527	511	
8	0	0	0	0	524	510	
9	0	0	0	0	528	512	
10	0	0	0	0	538	516	
11	0	0	0	0	567	515	
12	0	0	0	0	566	524	
13	0	0	0	0	426	519	
14	0	0	0	0	436	510	
15	0	0	0	0	529	505	
0	0	0	0	0	535	497	
1	0	0	0	0	556	505	
2	0	0	0	0	523	513	
3	0	0	0	0	536	515	
4	0	0	0	0	515	516	
5	0	0	0	0	467	513	
6	0	0	0	0	464	516	
7	0	0	0	0	554	519	
8	0	0	0	0	534	527	
9	0	0	0	0	549	512	
10	0	0	0	0	533	496	
11	0	0	0	0	417	508	
12	0	0	0	0	369	507	
13	0	0	0	0	422	513	
14	0	0	0	0	600	511	
15	0	0	0	0	671	513	
0	0	0	0	0	466	509	
1	0	0	0	0	432	506	
2	0	0	0	0	380	508	
3	0	0	0	0	408	502	
4	0	0	0	0	443	501	
5	0	0	0	0	464	512	
6	0	0	0	0	509	520	
7	0	0	0	0	518	526	
8	0	0	0	0	540	520	
9	0	0	0	0	452	500	
10	0	0	0	0	581	500	
11	0	0	0	0	607	510	
12	0	0	0	0	538	511	
13	0	0	0	0	499	513	
14	0	0	0	0	482	513	
15	0	0	0	0	484	517	
0	0	0	0	0	487	519	
1	0	0	0	0	482	520	
2	0	0	0	0	490	520	
3	0	0	0	0	547	519	
4	0	0	0	0	609	511	
5	0	0	0	0	642	514	
6	0	0	0	0	593	505	
7	0	0	0	0	564	502	
8	0	0	0	0	567	516	
9	0	0	0	0	460	514	
10	0	0	0	0	422	505	
11	0	0	0	0	361	505	
12	0	0	0	0	439	512	
13	0	0	0	0	482	510	
14	0	0	0	0	466	517	
15	0	0	0	0	542	519	
0	0	0	0	0	440	512	
1	0	0	0	0	491	513	
2	0	0	0	0	558	504	
3	0	0	0	0	496	507	
4	0	0	0	0	525	514	
5	0	0	0	0	611	514	
6	0	0	0	0	551	516	
7	0	0	0	0	521	514	
8	0	0	0	0	579	500	
9	0	0	0	0	584	498	
10	0	0	0	0	588	508	
11	0	0	0	0	505	516	
12	0	0	0	0	379	516	
13	0	0	0	0	407	514	
14	0	0	0	0	358	505	
15	0	0	0	0	462	512	
0	0	0	0	0	443	514	
1	0	0	0	0	489	513	
2	0	0	0	0	397	511	
3	0	0	0	0	462	515	
4	0	0	0	0	543	513	
5	0	0	0	0	504	512	
6	0	0	0	0	457	519	
7	0	0	0	0	481	527	
8	0	0	0	0	552	523	
9	0	0	0	0	584	516	
10	0	0	0	0	562	505	
11	0	0	0	0	549	511	
12	0	0	0	0	563	520	
13	0	0	0	0	563	501	
14	0	0	0	0	511	494	
15	0	0	0	0	521	494	
0	0	0	0	0	477	499	
1	0	0	0	0	492	509	
2	0	0	0	0	547	516	
3	0	0	0	0	539	520	
4	0	0	0	0	500	519	
5	0	0	0	0	488	523	
6	0	0	0	0	493	526	
7	0	0	0	0	560	524	
8	0	0	0	0	511	513	
9	0	0	0	0	556	508	
10	0	0	0	0	792	518	
11	0	0	0	0	701	514	
12	0	0	0	0	444	496	
13	0	0	0	0	207	496	
14	0	0	0	0	292	494	
15	0	0	0	0	312	501	
0	0	0	0	0	445	509	
1	0	0	0	0	485	508	
2	0	0	0	0	500	516	
3	0	0	0	0	479	519	
4	0	0	0	0	495	511	
5	0	0	0	0	543	516	
6	0	0	0	0	584	519	
7	0	0	0	0	533	518	
8	0	0	0	0	485	513	
9	0	0	0	0	473	509	
10	0	0	0	0	491	515	
11	0	0	0	0	515	520	
12	0	0	0	0	575	517	
13	0	0	0	0	677	521	
14	0	0	0	0	684	514	
15	0	0	0	0	708	512	
0	0	0	0	0	616	507	
1	0	0	0	0	473	505	
2	0	0	0	0	275	504	
3	0	0	0	0	215	508	
4	0	0	0	0	380	513	
5	0	0	0	0	457	513	
6	0	0	0	0	468	515	
7	0	0	0	0	427	512	
8	0	0	0	0	433	512	
9	0	0	0	0	515	515	
10	0	0	0	0	575	516	
11	0	0	0	0	572	522	
12	0	0	0	0	500	512	
13	0	0	0	0	611	508	
14	0	0	0	0	640	504	
15	0	0	0	0	546	514	
0	0	0	0	0	533	517	
1	0	0	0	0	624	511	
2	0	0	0	0	529	501	
3	0	0	0	0	481	499	
4	0	0	0	0	408	504	
5	0	0	0	0	406	510	
6	0	0	0	0	483	513	
7	0	0	0	0	560	512	
8	0	0	0	0	617	515	
9	0	0	0	0	625	511	
10	0	0	0	0	527	515	
11	0	0	0	0	438	518	
12	0	0	0	0	481	518	
13	0	0	0	0	363	516	
14	0	0	0	0	318	519	
15	0	0	0	0	447	527	
0	0	0	0	0	578	522	
1	0	0	0	0	579	524	
2	0	0	0	0	614	496	
3	0	0	0	0	512	479	
4	0	0	0	0	510	489	
5	0	0	0	0	559	505	
6	0	0	0	0	365	508	
7	0	0	0	0	395	500	
8	0	0	0	0	396	520	
9	0	0	0	0	441	519	
10	0	0	0	0	477	504	
11	0	0	0	0	553	505	
12	0	0	0	0	553	515	
13	0	0	0	0	523	516	
14	0	0	0	0	524	519	
15	0	0	0	0	519	520	
0	0	0	0	0	525	519	
1	0	0	0	0	497	526	
2	0	0	0	0	499	520	
3	0	0	0	0	632	515	
4	0	0	0	0	697	510	
5	0	0	0	0	732	508	
6	0	0	0	0	628	518	
7	0	0	0	0	449	519	
8	0	0	0	0	384	509	
9	0	0	0	0	397	496	
10	0	0	0	0	327	498	
11	0	0	0	0	386	508	
12	0	0	0	0	353	510	
13	0	0	0	0	507	502	
14	0	0	0	0	572	503	
15	0	0	0	0	502	512	
0	0	0	0	0	390	518	
1	0	0	0	0	445	521	
2	0	0	0	0	524	518	
3	0	0	0	0	555	515	
4	0	0	0	0	531	515	
5	0	0	0	0	559	516	
6	0	0	0	0	593	513	
7	0	0	0	0	579	515	
8	0	0	0	0	568	513	
9	0	0	0	0	504	510	
10	0	0	0	0	483	515	
11	0	0	0	0	511	517	
12	0	0	0	0	472	511	
13	0	0	0	0	512	511	
14	0	0	0	0	545	508	
15	0	0	0	0	539	505	
0	0	0	0	0	556	518	
1	0	0	0	0	556	524	
2	0	0	0	0	520	527	
3	0	0	0	0	428	508	
4	0	0	0	0	456	495	
5	0	0	0	0	509	496	
6	0	0	0	0	494	511	
7	0	0	0	0	556	512	
8	0	0	0	0	567	503	
9	0	0	0	0	480	497	
10	0	0	0	0	303	504	
11	0	0	0	0	402	515	
12	0	0	0	0	501	515	
13	0	0	0	0	541	514	
14	0	0	0	0	561	515	
15	0	0	0	0	563	515	
0	0	0	0	0	527	518	
1	0	0	0	0	592	524	
2	0	0	0	0	614	525	
3	0	0	0	0	595	516	
4	0	0	0	0	552	507	
5	0	0	0	0	500	505	
6	0	0	0	0	362	509	
7	0	0	0	0	263	508	
8	0	0	0	0	408	502	
9	0	0	0	0	515	513	
10	0	0	0	0	479	515	
11	0	0	0	0	497	510	
12	0	0	0	0	518	512	
13	0	0	0	0	414	507	
14	0	0	0	0	441	512	
15	0	0	0	0	532	514	
0	0	0	0	0	580	513	
1	0	0	0	0	587	515	
2	0	0	0	0	639	519	
3	0	0	0	0	635	518	
4	0	0	0	0	619	523	
5	0	0	0	0	598	519	
6	0	0	0	0	457	506	
7	0	0	0	0	449	504	
8	0	0	0	0	415	499	
9	0	0	0	0	331	506	
10	0	0	0	0	392	511	
11	0	0	0	0	385	513	
12	0	0	0	0	487	521	
13	0	0	0	0	492	524	
14	0	0	0	0	523	520	
15	0	0	0	0	544	505	
0	0	0	0	0	538	498	
1	0	0	0	0	553	499	
2	0	0	0	0	545	510	
3	0	0	0	0	552	512	
4	0	0	0	0	564	515	
5	0	0	0	0	558	510	
6	0	0	0	0	587	510	
7	0	0	0	0	657	513	
8	0	0	0	0	598	515	
9	0	0	0	0	279	512	
10	0	0	0	0	423	500	
11	0	0	0	0	540	505	
12	0	0	0	0	401	512	
13	0	0	0	0	500	521	
14	0	0	0	0	595	523	
15	0	0	0	0	569	513	
0	0	0	0	0	583	515	
1	0	0	0	0	478	509	
2	0	0	0	0	462	519	
3	0	0	0	0	590	515	
4	0	0	0	0	450	514	
5	0	0	0	0	411	493	
6	0	0	0	0	492	499	
7	0	0	0	0	411	510	
8	0	0	0	0	463	510	
9	0	0	0	0	433	508	
10	0	0	0	0	412	510	
11	0	0	0	0	505	515	
12	0	0	0	0	547	515	
13	0	0	0	0	553	520	
14	0	0	0	0	558	515	
15	0	0	0	0	542	519	
0	0	0	0	0	508	518	
1	0	0	0	0	417	508	
2	0	0	0	0	380	504	
3	0	0	0	0	444	512	
4	0	0	0	0	563	521	
5	0	0	0	0	718	521	
6	0	0	0	0	768	526	
7	0	0	0	0	715	526	
8	0	0	0	0	532	517	
9	0	0	0	0	488	510	
10	0	0	0	0	540	507	
11	0	0	0	0	243	492	
12	0	0	0	0	102	479	
13	0	0	0	0	412	494	
14	0	0	0	0	586	503	
15	0	0	0	0	532	507	
0	0	0	0	0	521	515	
1	0	0	0	0	516	517	
2	0	0	0	0	444	514	
3	0	0	0	0	483	515	
4	0	0	0	0	538	520	
5	0	0	0	0	527	523	
6	0	0	0	0	496	518	
7	0	0	0	0	510	512	
8	0	0	0	0	515	519	
9	0	0	0	0	541	521	
10	0	0	0	0	560	514	
11	0	0	0	0	600	513	
12	0	0	0	0	543	506	
13	0	0	0	0	521	506	
14	0	0	0	0	543	508	
15	0	0	0	0	593	515	
0	0	0	0	0	606	518	
1	0	0	0	0	520	513	
2	0	0	0	0	555	512	
3	0	0	0	0	452	505	
4	0	0	0	0	244	515	
5	0	0	0	0	316	516	
6	0	0	0	0	508	506	
7	0	0	0	0	528	512	
8	0	0	0	0	525	510	
9	0	0	0	0	517	506	
10	0	0	0	0	476	516	
11	0	0	0	0	475	513	
12	0	0	0	0	559	502	
13	0	0	0	0	604	500	
14	0	0	0	0	614	513	
15	0	0	0	0	448	515	
0	0	0	0	0	438	513	
1	0	0	0	0	484	517	
2	0	0	0	0	501	519	
3	0	0	0	0	528	517	
4	0	0	0	0	542	515	
5	0	0	0	0	551	512	
6	0	0	0	0	464	505	
7	0	0	0	0	578	513	
8	0	0	0	0	480	507	
9	0	0	0	0	392	504	
10	0	0	0	0	487	514	
11	0	0	0	0	550	516	
12	0	0	0	0	513	507	
13	0	0	0	0	509	504	
14	0	0	0	0	504	510	
15	0	0	0	0	483	513	
0	0	0	0	0	462	512	
1	0	0	0	0	455	512	
2	0	0	0	0	503	515	
3	0	0	0	0	560	518	
4	0	0	0	0	562	512	
5	0	0	0	0	579	507	
6	0	0	0	0	563	511	
7	0	0	0	0	520	515	
8	0	0	0	0	471	515	
9	0	0	0	0	412	511	
10	0	0	0	0	473	512	
11	0	0	0	0	500	509	
12	0	0	0	0	535	509	
13	0	0	0	0	521	515	
14	0	0	0	0	524	514	
15	0	0	0	0	555	511	
0	0	0	0	0	593	517	
1	0	0	0	0	592	515	
2	0	0	0	0	527	513	
3	0	0	0	0	569	509	
4	0	0	0	0	460	507	
5	0	0	0	0	411	508	
6	0	0	0	0	326	512	
7	0	0	0	0	354	518	
8	0	0	0	0	510	520	
9	0	0	0	0	478	519	
10	0	0	0	0	525	512	
11	0	0	0	0	572	506	
12	0	0	0	0	605	508	
13	0	0	0	0	515	511	
14	0	0	0	0	487	510	
15	0	0	0	0	398	509	
0	0	0	0	0	442	508	
1	0	0	0	0	448	508	
2	0	0	0	0	499	507	
3	0	0	0	0	390	511	
4	0	0	0	0	408	515	
5	0	0	0	0	581	509	
6	0	0	0	0	682	508	
7	0	0	0	0	679	513	
8	0	0	0	0	607	514	
9	0	0	0	0	429	510	
10	0	0	0	0	473	514	
11	0	0	0	0	579	520	
12	0	0	0	0	529	515	
13	0	0	0	0	503	515	
14	0	0	0	0	516	509	
15	0	0	0	0	470	509	
0	0	0	0	0	475	509	
1	0	0	0	0	476	516	
2	0	0	0	0	476	527	
3	0	0	0	0	536	529	
4	0	0	0	0	638	517	
5	0	0	0	0	671	496	
6	0	0	0	0	399	483	
7	0	0	0	0	259	501	
8	0	0	0	0	508	512	
9	0	0	0	0	511	509	
10	0	0	0	0	399	510	
11	0	0	0	0	455	512	
12	0	0	0	0	542	514	
13	0	0	0	0	545	519	
14	0	0	0	0	503	519	
15	0	0	0	0	514	519	
0	0	0	0	0	583	517	
1	0	0	0	0	702	510	
2	0	0	0	0	512	511	
3	0	0	0	0	371	505	
4	0	0	0	0	421	506	
5	0	0	0	0	470	510	
6	0	0	0	0	506	514	
7	0	0	0	0	447	515	
8	0	0	0	0	468	516	
9	0	0	0	0	540	517	
10	0	0	0	0	559	517	
11	0	0	0	0	527	516	
12	0	0	0	0	524	512	
13	0	0	0	0	511	502	
14	0	0	0	0	513	504	
15	0	0	0	0	569	509	
0	0	0	0	0	485	507	
1	0	0	0	0	499	513	
2	0	0	0	0	550	517	
3	0	0	0	0	577	521	
4	0	0	0	0	572	519	
5	0	0	0	0	525	509	
6	0	0	0	0	359	505	
7	0	0	0	0	409	508	
8	0	0	0	0	534	504	
9	0	0	0	0	547	505	
10	0	0	0	0	539	510	
11	0	0	0	0	484	516	
12	0	0	0	0	458	520	
13	0	0	0	0	573	518	
14	0	0	0	0	511	510	
15	0	0	0	0	492	507	
0	0	0	0	0	444	506	
1	0	0	0	0	413	508	
2	0	0	0	0	418	510	
3	0	0	0	0	487	514	
4	0	0	0	0	531	516	
5	0	0	0	0	491	516	
6	0	0	0	0	477	519	
7	0	0	0	0	486	522	
8	0	0	0	0	559	521	
9	0	0	0	0	647	517	
10	0	0	0	0	743	500	
11	0	0	0	0	542	504	
12	0	0	0	0	479	504	
13	0	0	0	0	464	502	
14	0	0	0	0	355	509	
15	0	0	0	0	412	514	
0	0	0	0	0	502	528	
1	0	0	0	0	556	507	
2	0	0	0	0	499	501	
3	0	0	0	0	481	510	
4	0	0	0	0	582	510	
5	0	0	0	0	475	515	
6	0	0	0	0	435	510	
7	0	0	0	0	446	505	
8	0	0	0	0	560	508	
9	0	0	0	0	538	513	
10	0	0	0	0	556	521	
11	0	0	0	0	577	526	
12	0	0	0	0	507	524	
13	0	0	0	0	389	524	
14	0	0	0	0	455	526	
15	0	0	0	0	525	496	
0	0	0	0	0	365	486	
1	0	0	0	0	507	501	
2	0	0	0	0	615	506	
3	0	0	0	0	571	507	
4	0	0	0	0	539	513	
5	0	0	0	0	553	519	
6	0	0	0	0	561	527	
7	0	0	0	0	534	529	
8	0	0	0	0	514	522	
9	0	0	0	0	541	494	
10	0	0	0	0	562	487	
11	0	0	0	0	508	498	
12	0	0	0	0	440	508	
13	0	0	0	0	348	518	
14	0	0	0	0	295	524	
15	0	0	0	0	417	524	
0	0	0	0	0	562	516	
1	0	0	0	0	689	511	
2	0	0	0	0	635	507	
3	0	0	0	0	454	513	
4	0	0	0	0	403	515	
5	0	0	0	0	456	510	
6	0	0	0	0	483	510	
7	0	0	0	0	471	511	
8	0	0	0	0	499	515	
9	0	0	0	0	524	515	
10	0	0	0	0	556	513	
11	0	0	0	0	600	510	
12	0	0	0	0	583	516	
13	0	0	0	0	532	517	
14	0	0	0	0	522	510	
15	0	0	0	0	377	497	
0	0	0	0	0	446	509	
1	0	0	0	0	536	516	
2	0	0	0	0	567	519	
3	0	0	0	0	576	515	
4	0	0	0	0	568	515	
5	0	0	0	0	521	515	
6	0	0	0	0	361	511	
7	0	0	0	0	457	511	
8	0	0	0	0	471	505	
9	0	0	0	0	452	507	
10	0	0	0	0	521	507	
11	0	0	0	0	611	510	
12	0	0	0	0	611	512	
13	0	0	0	0	624	515	
14	0	0	0	0	444	516	
15	0	0	0	0	472	511	
0	0	0	0	0	439	512	
1	0	0	0	0	257	515	
2	0	0	0	0	426	518	
3	0	0	0	0	523	519	
4	0	0	0	0	560	506	
5	0	0	0	0	551	505	
6	0	0	0	0	555	511	
7	0	0	0	0	494	514	
8	0	0	0	0	423	513	
9	0	0	0	0	513	502	
10	0	0	0	0	600	497	
11	0	0	0	0	644	513	
12	0	0	0	0	575	518	
13	0	0	0	0	512	516	
14	0	0	0	0	479	510	
15	0	0	0	0	475	512	
0	0	0	0	0	556	517	
1	0	0	0	0	475	513	
2	0	0	0	0	545	516	
3	0	0	0	0	448	512	
4	0	0	0	0	440	508	
5	0	0	0	0	536	507	
6	0	0	0	0	568	510	
7	0	0	0	0	572	514	
8	0	0	0	0	485	512	
9	0	0	0	0	475	515	
10	0	0	0	0	379	516	
11	0	0	0	0	456	521	
12	0	0	0	0	532	517	
13	0	0	0	0	479	516	
14	0	0	0	0	453	511	
15	0	0	0	0	436	511	
0	0	0	0	0	467	505	
1	0	0	0	0	492	505	
2	0	0	0	0	536	505	
3	0	0	0	0	583	510	
4	0	0	0	0	656	510	
5	0	0	0	0	585	508	
6	0	0	0	0	421	514	
7	0	0	0	0	368	518	
8	0	0	0	0	447	520	
9	0	0	0	0	512	526	
10	0	0	0	0	542	516	
11	0	0	0	0	511	502	
12	0	0	0	0	460	496	
13	0	0	0	0	497	497	
14	0	0	0	0	614	514	
15	0	0	0	0	543	514	
0	0	0	0	0	590	518	
1	0	0	0	0	652	512	
2	0	0	0	0	457	511	
3	0	0	0	0	388	511	
4	0	0	0	0	429	516	
5	0	0	0	0	471	518	
6	0	0	0	0	468	512	
7	0	0	0	0	469	515	
8	0	0	0	0	508	519	
9	0	0	0	0	574	514	
10	0	0	0	0	585	511	
11	0	0	0	0	643	505	
12	0	0	0	0	577	507	
13	0	0	0	0	589	513	
14	0	0	0	0	412	508	
15	0	0	0	0	343	505	
0	0	0	0	0	383	508	
1	0	0	0	0	447	508	
2	0	0	0	0	485	512	
3	0	0	0	0	504	516	
4	0	0	0	0	503	515	
5	0	0	0	0	519	512	
6	0	0	0	0	529	512	
7	0	0	0	0	524	517	
8	0	0	0	0	543	523	
9	0	0	0	0	571	521	
10	0	0	0	0	579	518	
11	0	0	0	0	564	515	
12	0	0	0	0	597	501	
13	0	0	0	0	499	503	
14	0	0	0	0	363	513	
15	0	0	0	0	433	515	
0	0	0	0	0	494	506	
1	0	0	0	0	506	503	
2	0	0	0	0	464	502	
3	0	0	0	0	563	511	
4	0	0	0	0	524	516	
5	0	0	0	0	519	516	
6	0	0	0	0	604	518	
7	0	0	0	0	575	528	
8	0	0	0	0	391	523	
9	0	0	0	0	362	508	
10	0	0	0	0	433	502	
11	0	0	0	0	413	499	
12	0	0	0	0	462	502	
13	0	0	0	0	483	506	
14	0	0	0	0	525	512	
15	0	0	0	0	527	514	
0	0	0	0	0	527	515	
1	0	0	0	0	525	514	
2	0	0	0	0	553	514	
3	0	0	0	0	593	512	
4	0	0	0	0	601	515	
5	0	0	0	0	592	516	
6	0	0	0	0	568	514	
7	0	0	0	0	545	515	
8	0	0	0	0	437	515	
9	0	0	0	0	303	511	
10	0	0	0	0	439	507	
11	0	0	0	0	510	510	
12	0	0	0	0	526	516	
13	0	0	0	0	493	513	
14	0	0	0	0	440	510	
15	0	0	0	0	382	509	
0	0	0	0	0	463	510	
1	0	0	0	0	579	513	
2	0	0	0	0	679	512	
3	0	0	0	0	550	516	
4	0	0	0	0	521	523	
5	0	0	0	0	532	511	
6	0	0	0	0	545	505	
7	0	0	0	0	486	499	
8	0	0	0	0	460	509	
9	0	0	0	0	511	518	
10	0	0	0	0	533	514	
11	0	0	0	0	546	507	
12	0	0	0	0	567	508	
13	0	0	0	0	523	512	
14	0	0	0	0	436	512	
15	0	0	0	0	402	515	
0	0	0	0	0	451	513	
1	0	0	0	0	455	518	
2	0	0	0	0	489	527	
3	0	0	0	0	508	528	
4	0	0	0	0	566	510	
5	0	0	0	0	611	491	
6	0	0	0	0	585	489	
7	0	0	0	0	487	503	
8	0	0	0	0	461	512	
9	0	0	0	0	469	517	
10	0	0	0	0	502	518	
11	0	0	0	0	555	523	
12	0	0	0	0	603	519	
13	0	0	0	0	622	511	
14	0	0	0	0	607	510	
15	0	0	0	0	523	516	
0	0	0	0	0	447	513	
1	0	0	0	0	391	504	
2	0	0	0	0	357	490	
3	0	0	0	0	294	497	
4	0	0	0	0	380	509	
5	0	0	0	0	481	516	
6	0	0	0	0	531	519	
7	0	0	0	0	531	517	
8	0	0	0	0	534	515	
9	0	0	0	0	540	514	
10	0	0	0	0	546	514	
11	0	0	0	0	540	512	
12	0	0	0	0	563	513	
13	0	0	0	0	583	515	
14	0	0	0	0	472	516	
15	0	0	0	0	481	517	
0	0	0	0	0	634	513	
1	0	0	0	0	620	509	
2	0	0	0	0	494	507	
3	0	0	0	0	462	513	
4	0	0	0	0	553	518	
5	0	0	0	0	551	523	
6	0	0	0	0	385	514	
7	0	0	0	0	261	499	
8	0	0	0	0	390	507	
9	0	0	0	0	425	511	
10	0	0	0	0	484	513	
11	0	0	0	0	548	515	
12	0	0	0	0	536	512	
13	0	0	0	0	535	510	
14	0	0	0	0	577	507	
15	0	0	0	0	611	510	
0	0	0	0	0	617	514	
1	0	0	0	0	496	517	
2	0	0	0	0	575	516	
3	0	0	0	0	618	514	
4	0	0	0	0	411	508	
5	0	0	0	0	371	507	
6	0	0	0	0	501	508	
7	0	0	0	0	483	509	
8	0	0	0	0	518	519	
9	0	0	0	0	481	510	
10	0	0	0	0	460	510	
11	0	0	0	0	425	509	
12	0	0	0	0	411	512	
13	0	0	0	0	524	507	
14	0	0	0	0	553	507	
15	0	0	0	0	559	510	
0	0	0	0	0	561	515	
1	0	0	0	0	540	515	
2	0	0	0	0	553	514	
3	0	0	0	0	564	515	
4	0	0	0	0	526	514	
5	0	0	0	0	504	511	
6	0	0	0	0	504	513	
7	0	0	0	0	496	515	
8	0	0	0	0	450	512	
9	0	0	0	0	399	517	
10	0	0	0	0	443	519	
11	0	0	0	0	507	515	
12	0	0	0	0	524	508	
13	0	0	0	0	511	511	
14	0	0	0	0	550	506	
15	0	0	0	0	571	507	
0	0	0	0	0	539	511	
1	0	0	0	0	614	520	
2	0	0	0	0	588	513	
3	0	0	0	0	605	512	
4	0	0	0	0	623	518	
5	0	0	0	0	617	518	
6	0	0	0	0	476	512	
7	0	0	0	0	261	504	
8	0	0	0	0	132	496	
9	0	0	0	0	185	502	
10	0	0	0	0	448	507	
11	0	0	0	0	573	508	
12	0	0	0	0	577	513	
13	0	0	0	0	547	513	
14	0	0	0	0	562	511	
15	0	0	0	0	570	511	
0	0	0	0	0	527	514	
1	0	0	0	0	533	519	
2	0	0	0	0	483	521	
3	0	0	0	0	512	523	
4	0	0	0	0	456	521	
5	0	0	0	0	466	523	
6	0	0	0	0	578	518	
7	0	0	0	0	671	499	
8	0	0	0	0	602	500	
9	0	0	0	0	661	518	
10	0	0	0	0	571	518	
11	0	0	0	0	545	499	
12	0	0	0	0	450	497	
13	0	0	0	0	387	499	
14	0	0	0	0	311	504	
15	0	0	0	0	370	510	
0	0	0	0	0	463	512	
1	0	0	0	0	482	511	
2	0	0	0	0	508	515	
3	0	0	0	0	520	516	
4	0	0	0	0	524	515	
5	0	0	0	0	524	515	
6	0	0	0	0	520	516	
7	0	0	0	0	521	518	
8	0	0	0	0	522	518	
9	0	0	0	0	511	518	
10	0	0	0	0	489	519	
11	0	0	0	0	509	511	
12	0	0	0	0	511	512	
13	0	0	0	0	583	509	
14	0	0	0	0	696	510	
15	0	0	0	0	659	508	
0	0	0	0	0	547	502	
1	0	0	0	0	512	511	
2	0	0	0	0	399	514	
3	0	0	0	0	358	510	
4	0	0	0	0	389	504	
5	0	0	0	0	297	511	
6	0	0	0	0	401	515	
7	0	0	0	0	536	517	
8	0	0	0	0	608	514	
9	0	0	0	0	572	512	
10	0	0	0	0	448	512	
11	0	0	0	0	501	507	
12	0	0	0	0	587	502	
13	0	0	0	0	569	507	
14	0	0	0	0	551	513	
15	0	0	0	0	572	517	
0	0	0	0	0	496	517	
1	0	0	0	0	507	514	
2	0	0	0	0	551	515	
3	0	0	0	0	504	511	
4	0	0	0	0	446	511	
5	0	0	0	0	491	509	
6	0	0	0	0	477	507	
7	0	0	0	0	356	515	
8	0	0	0	0	444	523	
9	0	0	0	0	654	517	
10	0	0	0	0	573	511	
11	0	0	0	0	521	509	
12	0	0	0	0	409	507	
13	0	0	0	0	425	508	
14	0	0	0	0	467	511	
15	0	0	0	0	512	515	
0	0	0	0	0	532	511	
1	0	0	0	0	539	511	
2	0	0	0	0	536	512	
3	0	0	0	0	551	515	
4	0	0	0	0	494	516	
5	0	0	0	0	450	516	
6	0	0	0	0	537	515	
7	0	0	0	0	523	511	
8	0	0	0	0	496	508	
9	0	0	0	0	477	509	
10	0	0	0	0	507	507	
11	0	0	0	0	577	510	
12	0	0	0	0	500	511	
13	0	0	0	0	497	511	
14	0	0	0	0	539	515	
15	0	0	0	0	524	509	
0	0	0	0	0	544	508	
1	0	0	0	0	587	519	
2	0	0	0	0	528	518	
3	0	0	0	0	535	515	
4	0	0	0	0	536	515	
5	0	0	0	0	417	503	
6	0	0	0	0	512	501	
7	0	0	0	0	363	499	
8	0	0	0	0	396	508	
9	0	0	0	0	478	512	
10	0	0	0	0	507	516	
11	0	0	0	0	517	515	
12	0	0	0	0	504	515	
13	0	0	0	0	524	519	
14	0	0	0	0	529	528	
15	0	0	0	0	540	536	
0	0	0	0	0	530	525	
1	0	0	0	0	472	506	
2	0	0	0	0	522	493	
3	0	0	0	0	467	494	
4	0	0	0	0	495	498	
5	0	0	0	0	544	504	
6	0	0	0	0	479	511	
7	0	0	0	0	538	513	
8	0	0	0	0	587	515	
9	0	0	0	0	398	513	
10	0	0	0	0	470	511	
11	0	0	0	0	627	514	
12	0	0	0	0	664	517	
13	0	0	0	0	349	519	
14	0	0	0	0	425	516	
15	0	0	0	0	502	499	
0	0	0	0	0	526	503	
1	0	0	0	0	478	516	
2	0	0	0	0	510	525	
3	0	0	0	0	470	514	
4	0	0	0	0	424	504	
5	0	0	0	0	437	512	
6	0	0	0	0	417	515	
7	0	0	0	0	424	508	
8	0	0	0	0	540	508	
9	0	0	0	0	583	516	
10	0	0	0	0	640	521	
11	0	0	0	0	677	514	
12	0	0	0	0	693	507	
13	0	0	0	0	604	504	
14	0	0	0	0	495	509	
15	0	0	0	0	341	511	
0	0	0	0	0	331	515	
1	0	0	0	0	434	514	
2	0	0	0	0	491	508	
3	0	0	0	0	515	511	
4	0	0	0	0	515	517	
5	0	0	0	0	541	520	
6	0	0	0	0	586	523	
7	0	0	0	0	624	510	
8	0	0	0	0	551	506	
9	0	0	0	0	349	502	
10	0	0	0	0	415	504	
11	0	0	0	0	479	506	
12	0	0	0	0	475	507	
13	0	0	0	0	531	511	
14	0	0	0	0	567	515	
15	0	0	0	0	528	516	
0	0	0	0	0	538	516	
1	0	0	0	0	565	517	
2	0	0	0	0	558	517	
3	0	0	0	0	577	516	
4	0	0	0	0	574	513	
5	0	0	0	0	557	513	
6	0	0	0	0	390	512	
7	0	0	0	0	312	504	
8	0	0	0	0	320	510	
9	0	0	0	0	472	513	
10	0	0	0	0	521	511	
11	0	0	0	0	464	509	
12	0	0	0	0	467	508	
13	0	0	0	0	519	512	
14	0	0	0	0	524	514	
15	0	0	0	0	524	515	
0	0	0	0	0	559	514	
1	0	0	0	0	565	513	
2	0	0	0	0	541	512	
3	0	0	0	0	522	513	
4	0	0	0	0	504	515	
5	0	0	0	0	480	522	
6	0	0	0	0	356	523	
7	0	0	0	0	469	516	
8	0	0	0	0	642	500	
9	0	0	0	0	577	494	
10	0	0	0	0	478	500	
11	0	0	0	0	566	508	
12	0	0	0	0	636	510	
13	0	0	0	0	594	511	
14	0	0	0	0	599	515	
15	0	0	0	0	566	515	
0	0	0	0	0	392	513	
1	0	0	0	0	518	508	
2	0	0	0	0	298	509	
3	0	0	0	0	361	517	
4	0	0	0	0	448	521	
5	0	0	0	0	483	525	
6	0	0	0	0	457	527	
7	0	0	0	0	490	515	
8	0	0	0	0	590	502	
9	0	0	0	0	584	502	
10	0	0	0	0	450	508	
11	0	0	0	0	402	505	
12	0	0	0	0	514	511	
13	0	0	0	0	563	505	
14	0	0	0	0	545	502	
15	0	0	0	0	524	507	
0	0	0	0	0	531	514	
1	0	0	0	0	561	519	
2	0	0	0	0	588	520	
3	0	0	0	0	535	511	
4	0	0	0	0	550	511	
5	0	0	0	0	530	511	
6	0	0	0	0	415	510	
7	0	0	0	0	383	512	
8	0	0	0	0	405	511	
9	0	0	0	0	471	511	
10	0	0	0	0	490	516	
11	0	0	0	0	525	519	
12	0	0	0	0	545	523	
13	0	0	0	0	556	526	
14	0	0	0	0	589	519	
15	0	0	0	0	582	512	
0	0	0	0	0	485	496	
1	0	0	0	0	412	500	
2	0	0	0	0	472	510	
3	0	0	0	0	510	510	
4	0	0	0	0	396	508	
5	0	0	0	0	431	505	
6	0	0	0	0	561	508	
7	0	0	0	0	583	510	
8	0	0	0	0	501	515	
9	0	0	0	0	478	515	
10	0	0	0	0	492	517	
11	0	0	0	0	561	515	
12	0	0	0	0	588	510	
13	0	0	0	0	577	511	
14	0	0	0	0	580	519	
15	0	0	0	0	588	513	
0	0	0	0	0	415	507	
1	0	0	0	0	403	506	
2	0	0	0	0	381	507	
3	0	0	0	0	436	515	
4	0	0	0	0	499	515	
5	0	0	0	0	518	512	
6	0	0	0	0	508	513	
7	0	0	0	0	483	507	
8	0	0	0	0	488	513	
9	0	0	0	0	560	516	
10	0	0	0	0	596	519	
11	0	0	0	0	633	521	
12	0	0	0	0	679	519	
13	0	0	0	0	622	505	
14	0	0	0	0	302	495	
15	0	0	0	0	339	508	
0	0	0	0	0	439	511	
1	0	0	0	0	405	512	
2	0	0	0	0	490	515	
3	0	0	0	0	560	511	
4	0	0	0	0	626	512	
5	0	0	0	0	659	515	
6	0	0	0	0	640	518	
7	0	0	0	0	634	515	
8	0	0	0	0	449	518	
9	0	0	0	0	347	518	
10	0	0	0	0	264	504	
11	0	0	0	0	314	504	
12	0	0	0	0	306	508	
13	0	0	0	0	448	513	
14	0	0	0	0	609	508	
15	0	0	0	0	655	510	
0	0	0	0	0	560	513	
1	0	0	0	0	555	509	
2	0	0	0	0	535	513	
3	0	0	0	0	528	513	
4	0	0	0	0	584	509	
5	0	0	0	0	553	512	
6	0	0	0	0	534	518	
7	0	0	0	0	563	510	
8	0	0	0	0	501	518	
9	0	0	0	0	399	520	
10	0	0	0	0	499	525	
11	0	0	0	0	556	505	
12	0	0	0	0	436	492	
13	0	0	0	0	277	499	
14	0	0	0	0	475	504	
15	0	0	0	0	570	515	
0	0	0	0	0	472	514	
1	0	0	0	0	386	511	
2	0	0	0	0	533	508	
3	0	0	0	0	600	511	
4	0	0	0	0	603	515	
5	0	0	0	0	630	521	
6	0	0	0	0	563	524	
7	0	0	0	0	535	523	
8	0	0	0	0	524	518	
9	0	0	0	0	483	511	
10	0	0	0	0	407	507	
11	0	0	0	0	476	507	
12	0	0	0	0	534	510	
13	0	0	0	0	462	513	
14	0	0	0	0	569	503	
15	0	0	0	0	579	506	
0	0	0	0	0	593	509	
1	0	0	0	0	572	507	
2	0	0	0	0	440	513	
3	0	0	0	0	401	516	
4	0	0	0	0	282	519	
5	0	0	0	0	374	524	
6	0	0	0	0	515	519	
7	0	0	0	0	595	523	
8	0	0	0	0	673	517	
9	0	0	0	0	734	498	
10	0	0	0	0	645	496	
11	0	0	0	0	360	499	
12	0	0	0	0	337	504	
13	0	0	0	0	476	508	
14	0	0	0	0	526	512	
15	0	0	0	0	431	519	
0	0	0	0	0	475	519	
1	0	0	0	0	509	519	
2	0	0	0	0	524	518	
3	0	0	0	0	409	519	
4	0	0	0	0	440	508	
5	0	0	0	0	480	503	
6	0	0	0	0	547	508	
7	0	0	0	0	572	507	
8	0	0	0	0	541	507	
9	0	0	0	0	518	514	
10	0	0	0	0	444	517	
11	0	0	0	0	459	519	
12	0	0	0	0	530	513	
13	0	0	0	0	555	508	
14	0	0	0	0	561	512	
15	0	0	0	0	555	512	
0	0	0	0	0	503	512	
1	0	0	0	0	476	516	
2	0	0	0	0	554	510	
3	0	0	0	0	594	507	
4	0	0	0	0	515	512	
5	0	0	0	0	510	508	
6	0	0	0	0	461	507	
7	0	0	0	0	423	510	
8	0	0	0	0	487	511	
9	0	0	0	0	492	511	
10	0	0	0	0	492	513	
11	0	0	0	0	496	516	
12	0	0	0	0	504	516	
13	0	0	0	0	518	513	
14	0	0	0	0	539	512	
15	0	0	0	0	547	516	
0	0	0	0	0	558	521	
1	0	0	0	0	587	519	
2	0	0	0	0	534	512	
3	0	0	0	0	423	502	
4	0	0	0	0	437	501	
5	0	0	0	0	567	507	
6	0	0	0	0	579	517	
7	0	0	0	0	508	519	
8	0	0	0	0	485	515	
9	0	0	0	0	416	511	
10	0	0	0	0	471	507	
11	0	0	0	0	429	501	
12	0	0	0	0	423	502	
13	0	0	0	0	402	502	
14	0	0	0	0	493	500	
15	0	0	0	0	494	514	
0	0	0	0	0	499	520	
1	0	0	0	0	484	518	
2	0	0	0	0	493	516	
3	0	0	0	0	512	516	
4	0	0	0	0	547	517	
5	0	0	0	0	617	523	
6	0	0	0	0	719	517	
7	0	0	0	0	553	509	
8	0	0	0	0	405	502	
9	0	0	0	0	531	510	
10	0	0	0	0	527	511	
11	0	0	0	0	431	515	
12	0	0	0	0	508	515	
13	0	0	0	0	534	514	
14	0	0	0	0	504	514	
15	0	0	0	0	503	513	
0	0	0	0	0	483	510	
1	0	0	0	0	465	514	
2	0	0	0	0	491	517	
3	0	0	0	0	492	516	
4	0	0	0	0	538	516	
5	0	0	0	0	587	515	
6	0	0	0	0	600	501	
7	0	0	0	0	581	504	
8	0	0	0	0	596	509	
9	0	0	0	0	490	507	
10	0	0	0	0	275	504	
11	0	0	0	0	345	510	
12	0	0	0	0	429	511	
13	0	0	0	0	512	510	
14	0	0	0	0	524	509	
15	0	0	0	0	565	512	
0	0	0	0	0	520	515	
1	0	0	0	0	462	517	
2	0	0	0	0	513	515	
3	0	0	0	0	594	512	
4	0	0	0	0	645	511	
5	0	0	0	0	599	514	
6	0	0	0	0	532	512	
7	0	0	0	0	501	518	
8	0	0	0	0	235	515	
9	0	0	0	0	415	510	
10	0	0	0	0	553	510	
11	0	0	0	0	469	513	
12	0	0	0	0	423	508	
13	0	0	0	0	500	509	
14	0	0	0	0	535	514	
15	0	0	0	0	551	510	
0	0	0	0	0	589	507	
1	0	0	0	0	610	510	
2	0	0	0	0	551	510	
3	0	0	0	0	478	515	
4	0	0	0	0	467	517	
5	0	0	0	0	508	510	
6	0	0	0	0	408	505	
7	0	0	0	0	458	504	
8	0	0	0	0	550	510	
9	0	0	0	0	600	514	
10	0	0	0	0	588	515	
11	0	0	0	0	595	516	
12	0	0	0	0	567	513	
13	0	0	0	0	336	515	
14	0	0	0	0	307	523	
15	0	0	0	0	389	518	
0	0	0	0	0	452	520	
1	0	0	0	0	388	519	
2	0	0	0	0	492	510	
3	0	0	0	0	603	497	
4	0	0	0	0	596	493	
5	0	0	0	0	624	499	
6	0	0	0	0	531	509	
7	0	0	0	0	470	512	
8	0	0	0	0	494	514	
9	0	0	0	0	518	516	
10	0	0	0	0	521	516	
11	0	0	0	0	536	515	
12	0	0	0	0	535	515	
13	0	0	0	0	529	514	
14	0	0	0	0	524	512	
15	0	0	0	0	521	514	
0	0	0	0	0	474	515	
1	0	0	0	0	385	520	
2	0	0	0	0	455	525	
3	0	0	0	0	515	527	
4	0	0	0	0	559	512	
5	0	0	0	0	603	504	
6	0	0	0	0	561	496	
7	0	0	0	0	526	490	
8	0	0	0	0	466	499	
9	0	0	0	0	468	509	
10	0	0	0	0	471	511	
11	0	0	0	0	472	513	
12	0	0	0	0	473	516	
13	0	0	0	0	492	516	
14	0	0	0	0	522	518	
15	0	0	0	0	536	515	
0	0	0	0	0	564	511	
1	0	0	0	0	616	513	
2	0	0	0	0	615	513	
3	0	0	0	0	513	506	
4	0	0	0	0	436	502	
5	0	0	0	0	424	512	
6	0	0	0	0	347	514	
7	0	0	0	0	405	521	
8	0	0	0	0	515	524	
9	0	0	0	0	592	519	
10	0	0	0	0	627	509	
11	0	0	0	0	680	510	
12	0	0	0	0	667	507	
13	0	0	0	0	354	510	
14	0	0	0	0	191	503	
15	0	0	0	0	392	504	
0	0	0	0	0	494	510	
1	0	0	0	0	515	512	
2	0	0	0	0	554	515	
3	0	0	0	0	563	518	
4	0	0	0	0	629	518	
5	0	0	0	0	677	516	
6	0	0	0	0	647	519	
7	0	0	0	0	407	521	
8	0	0	0	0	440	522	
9	0	0	0	0	543	510	
10	0	0	0	0	327	506	
11	0	0	0	0	257	505	
12	0	0	0	0	369	503	
13	0	0	0	0	553	515	
14	0	0	0	0	647	513	
15	0	0	0	0	467	508	
0	0	0	0	0	447	499	
1	0	0	0	0	467	502	
2	0	0	0	0	534	511	
3	0	0	0	0	508	510	
4	0	0	0	0	478	512	
5	0	0	0	0	493	516	
6	0	0	0	0	526	518	
7	0	0	0	0	562	513	
8	0	0	0	0	579	516	
9	0	0	0	0	529	512	
10	0	0	0	0	524	511	
11	0	0	0	0	556	509	
12	0	0	0	0	615	511	
13	0	0	0	0	562	516	
14	0	0	0	0	484	515	
15	0	0	0	0	470	515	
0	0	0	0	0	474	512	
1	0	0	0	0	496	515	
2	0	0	0	0	512	515	
3	0	0	0	0	493	513	
4	0	0	0	0	483	511	
5	0	0	0	0	485	510	
6	0	0	0	0	472	509	
7	0	0	0	0	455	510	
8	0	0	0	0	489	509	
9	0	0	0	0	540	508	
10	0	0	0	0	583	516	
11	0	0	0	0	582	516	
12	0	0	0	0	552	512	
13	0	0	0	0	528	508	
14	0	0	0	0	407	506	
15	0	0	0	0	384	508	
0	0	0	0	0	475	515	
1	0	0	0	0	574	515	
2	0	0	0	0	619	515	
3	0	0	0	0	607	510	
4	0	0	0	0	659	514	
5	0	0	0	0	544	513	
6	0	0	0	0	362	510	
7	0	0	0	0	304	510	
8	0	0	0	0	477	511	
9	0	0	0	0	442	509	
10	0	0	0	0	414	507	
11	0	0	0	0	482	513	
12	0	0	0	0	513	511	
13	0	0	0	0	513	513	
14	0	0	0	0	504	515	
15	0	0	0	0	515	514	
0	0	0	0	0	558	510	
1	0	0	0	0	565	517	
2	0	0	0	0	592	520	
3	0	0	0	0	609	520	
4	0	0	0	0	695	518	
5	0	0	0	0	514	521	
6	0	0	0	0	321	509	
7	0	0	0	0	302	492	
8	0	0	0	0	298	493	
9	0	0	0	0	471	509	
10	0	0	0	0	535	510	
11	0	0	0	0	525	508	
12	0	0	0	0	513	512	
13	0	0	0	0	524	515	
14	0	0	0	0	550	518	
15	0	0	0	0	542	518	
0	0	0	0	0	521	513	
1	0	0	0	0	538	515	
2	0	0	0	0	568	513	
3	0	0	0	0	544	510	
4	0	0	0	0	531	508	
5	0	0	0	0	661	512	
6	0	0	0	0	636	512	
7	0	0	0	0	476	518	
8	0	0	0	0	344	516	
9	0	0	0	0	274	511	
10	0	0	0	0	352	510	
11	0	0	0	0	463	510	
12	0	0	0	0	518	518	
13	0	0	0	0	548	516	
14	0	0	0	0	588	509	
15	0	0	0	0	655	509	
0	0	0	0	0	546	504	
1	0	0	0	0	551	504	
2	0	0	0	0	566	510	
3	0	0	0	0	448	516	
4	0	0	0	0	307	512	
5	0	0	0	0	386	512	
6	0	0	0	0	500	511	
7	0	0	0	0	501	513	
8	0	0	0	0	486	512	
9	0	0	0	0	523	511	
10	0	0	0	0	555	514	
11	0	0	0	0	488	517	
12	0	0	0	0	518	512	
13	0	0	0	0	559	508	
14	0	0	0	0	574	513	
15	0	0	0	0	629	519	
0	0	0	0	0	691	516	
1	0	0	0	0	524	516	
2	0	0	0	0	377	510	
3	0	0	0	0	412	510	
4	0	0	0	0	413	510	
5	0	0	0	0	504	502	
6	0	0	0	0	523	502	
7	0	0	0	0	513	508	
8	0	0	0	0	504	513	
9	0	0	0	0	523	516	
10	0	0	0	0	504	514	
11	0	0	0	0	476	507	
12	0	0	0	0	496	514	
13	0	0	0	0	519	518	
14	0	0	0	0	537	523	
15	0	0	0	0	549	522	
0	0	0	0	0	540	514	
1	0	0	0	0	540	505	
2	0	0	0	0	579	499	
3	0	0	0	0	479	502	
4	0	0	0	0	358	505	
5	0	0	0	0	377	509	
6	0	0	0	0	473	513	
7	0	0	0	0	504	513	
8	0	0	0	0	511	517	
9	0	0	0	0	506	513	
10	0	0	0	0	511	517	
11	0	0	0	0	507	516	
12	0	0	0	0	517	516	
13	0	0	0	0	539	519	
14	0	0	0	0	535	518	
15	0	0	0	0	598	512	
0	0	0	0	0	639	515	
1	0	0	0	0	644	505	
2	0	0	0	0	510	500	
3	0	0	0	0	456	499	
4	0	0	0	0	275	512	
5	0	0	0	0	288	513	
6	0	0	0	0	381	507	
7	0	0	0	0	531	506	
8	0	0	0	0	557	511	
9	0	0	0	0	514	514	
10	0	0	0	0	510	518	
11	0	0	0	0	521	511	
12	0	0	0	0	531	517	
13	0	0	0	0	549	518	
14	0	0	0	0	547	515	
15	0	0	0	0	539	515	
0	0	0	0	0	540	516	
1	0	0	0	0	526	508	
2	0	0	0	0	450	504	
3	0	0	0	0	513	511	
4	0	0	0	0	606	513	
5	0	0	0	0	560	514	
6	0	0	0	0	554	515	
7	0	0	0	0	572	512	
8	0	0	0	0	376	508	
9	0	0	0	0	288	504	
10	0	0	0	0	431	504	
11	0	0	0	0	532	504	
12	0	0	0	0	606	508	
13	0	0	0	0	626	521	
14	0	0	0	0	518	521	
15	0	0	0	0	400	525	
0	0	0	0	0	496	514	
1	0	0	0	0	563	509	
2	0	0	0	0	488	508	
3	0	0	0	0	452	510	
4	0	0	0	0	604	510	
5	0	0	0	0	534	506	
6	0	0	0	0	366	508	
7	0	0	0	0	427	514	
8	0	0	0	0	492	513	
9	0	0	0	0	456	513	
10	0	0	0	0	471	515	
11	0	0	0	0	504	513	
12	0	0	0	0	547	515	
13	0	0	0	0	583	513	
14	0	0	0	0	592	516	
15	0	0	0	0	565	518	
0	0	0	0	0	481	511	
1	0	0	0	0	447	508	
2	0	0	0	0	476	503	
3	0	0	0	0	546	504	
4	0	0	0	0	558	509	
5	0	0	0	0	538	511	
6	0	0	0	0	532	513	
7	0	0	0	0	534	511	
8	0	0	0	0	465	517	
9	0	0	0	0	391	516	
10	0	0	0	0	424	514	
11	0	0	0	0	459	512	
12	0	0	0	0	496	512	
13	0	0	0	0	494	515	
14	0	0	0	0	498	515	
15	0	0	0	0	531	518	
0	0	0	0	0	559	515	
1	0	0	0	0	587	509	
2	0	0	0	0	516	501	
3	0	0	0	0	513	502	
4	0	0	0	0	528	508	
5	0	0	0	0	532	513	
6	0	0	0	0	540	520	
7	0	0	0	0	523	520	
8	0	0	0	0	433	510	
9	0	0	0	0	459	500	
10	0	0	0	0	518	506	
11	0	0	0	0	530	514	
12	0	0	0	0	530	515	
13	0	0	0	0	521	516	
14	0	0	0	0	498	515	
15	0	0	0	0	381	511	
0	0	0	0	0	447	512	
1	0	0	0	0	512	518	
2	0	0	0	0	586	513	
3	0	0	0	0	642	514	
4	0	0	0	0	595	511	
5	0	0	0	0	379	504	
6	0	0	0	0	390	504	
7	0	0	0	0	436	505	
8	0	0	0	0	472	507	
9	0	0	0	0	514	513	
10	0	0	0	0	578	517	
11	0	0	0	0	532	522	
12	0	0	0	0	555	513	
13	0	0	0	0	566	511	
14	0	0	0	0	602	511	
15	0	0	0	0	543	515	
0	0	0	0	0	486	513	
1	0	0	0	0	440	514	
2	0	0	0	0	444	524	
3	0	0	0	0	485	521	
4	0	0	0	0	510	517	
5	0	0	0	0	512	500	
6	0	0	0	0	432	486	
7	0	0	0	0	446	493	
8	0	0	0	0	480	505	
9	0	0	0	0	528	509	
10	0	0	0	0	575	514	
11	0	0	0	0	542	519	
12	0	0	0	0	361	519	
13	0	0	0	0	407	516	
14	0	0	0	0	494	514	
15	0	0	0	0	556	515	
0	0	0	0	0	561	516	
1	0	0	0	0	528	512	
2	0	0	0	0	519	515	
3	0	0	0	0	526	517	
4	0	0	0	0	502	519	
5	0	0	0	0	542	512	
6	0	0	0	0	486	511	
7	0	0	0	0	444	510	
8	0	0	0	0	545	504	
9	0	0	0	0	604	504	
10	0	0	0	0	522	507	
11	0	0	0	0	452	508	
12	0	0	0	0	483	515	
13	0	0	0	0	528	511	
14	0	0	0	0	524	513	
15	0	0	0	0	509	512	
0	0	0	0	0	497	513	
1	0	0	0	0	537	511	
2	0	0	0	0	574	512	
3	0	0	0	0	576	512	
4	0	0	0	0	577	512	
5	0	0	0	0	574	515	
6	0	0	0	0	505	515	
7	0	0	0	0	217	515	
8	0	0	0	0	354	514	
9	0	0	0	0	475	503	
10	0	0	0	0	497	500	
11	0	0	0	0	502	508	
12	0	0	0	0	503	513	
13	0	0	0	0	502	512	
14	0	0	0	0	492	514	
15	0	0	0	0	481	514	
0	0	0	0	0	491	515	
1	0	0	0	0	521	513	
2	0	0	0	0	568	512	
3	0	0	0	0	627	516	
4	0	0	0	0	593	519	
5	0	0	0	0	577	508	
6	0	0	0	0	529	504	
7	0	0	0	0	458	508	
8	0	0	0	0	514	513	
9	0	0	0	0	544	513	
10	0	0	0	0	516	510	
11	0	0	0	0	477	510	
12	0	0	0	0	487	504	
13	0	0	0	0	409	510	
14	0	0	0	0	427	514	
15	0	0	0	0	480	517	
0	0	0	0	0	538	513	
1	0	0	0	0	554	518	
2	0	0	0	0	501	512	
3	0	0	0	0	486	507	
4	0	0	0	0	524	510	
5	0	0	0	0	558	512	
6	0	0	0	0	582	514	
7	0	0	0	0	519	508	
8	0	0	0	0	412	503	
9	0	0	0	0	410	511	
10	0	0	0	0	501	520	
11	0	0	0	0	592	523	
12	0	0	0	0	630	524	
13	0	0	0	0	563	519	
14	0	0	0	0	405	508	
15	0	0	0	0	263	503	
0	0	0	0	0	496	503	
1	0	0	0	0	490	499	
2	0	0	0	0	460	508	
3	0	0	0	0	519	512	
4	0	0	0	0	520	510	
5	0	0	0	0	529	511	
6	0	0	0	0	524	515	
7	0	0	0	0	521	514	
8	0	0	0	0	527	514	
9	0	0	0	0	527	515	
10	0	0	0	0	538	516	
11	0	0	0	0	543	518	
12	0	0	0	0	568	515	
13	0	0	0	0	566	517	
14	0	0	0	0	551	514	
15	0	0	0	0	543	512	
0	0	0	0	0	479	503	
1	0	0	0	0	421	500	
2	0	0	0	0	339	507	
3	0	0	0	0	494	509	
4	0	0	0	0	583	512	
5	0	0	0	0	505	511	
6	0	0	0	0	430	511	
7	0	0	0	0	447	512	
8	0	0	0	0	508	515	
9	0	0	0	0	523	518	
10	0	0	0	0	515	513	
11	0	0	0	0	509	510	
12	0	0	0	0	508	514	
13	0	0	0	0	508	512	
14	0	0	0	0	502	513	
15	0	0	0	0	476	512	
0	0	0	0	0	483	511	
1	0	0	0	0	502	511	
2	0	0	0	0	523	514	
3	0	0	0	0	540	511	
4	0	0	0	0	560	510	
5	0	0	0	0	609	512	
6	0	0	0	0	579	509	
7	0	0	0	0	518	508	
8	0	0	0	0	511	510	
9	0	0	0	0	524	512	
10	0	0	0	0	538	514	
11	0	0	0	0	459	515	
12	0	0	0	0	400	513	
13	0	0	0	0	440	516	
14	0	0	0	0	533	520	
15	0	0	0	0	555	518	
0	0	0	0	0	548	510	
1	0	0	0	0	532	506	
2	0	0	0	0	432	502	
3	0	0	0	0	371	502	
4	0	0	0	0	467	502	
5	0	0	0	0	455	508	
6	0	0	0	0	515	512	
7	0	0	0	0	544	516	
8	0	0	0	0	479	518	
9	0	0	0	0	481	513	
10	0	0	0	0	526	515	
11	0	0	0	0	554	515	
12	0	0	0	0	550	516	
13	0	0	0	0	519	515	
14	0	0	0	0	498	513	
15	0	0	0	0	467	513	
0	0	0	0	0	439	512	
1	0	0	0	0	463	513	
2	0	0	0	0	511	513	
3	0	0	0	0	508	512	
4	0	0	0	0	541	514	
5	0	0	0	0	580	511	
6	0	0	0	0	547	510	
7	0	0	0	0	566	515	
8	0	0	0	0	665	515	
9	0	0	0	0	687	504	
10	0	0	0	0	551	502	
11	0	0	0	0	424	507	
12	0	0	0	0	374	513	
13	0	0	0	0	427	524	
14	0	0	0	0	363	520	
15	0	0	0	0	503	511	
0	0	0	0	0	601	500	
1	0	0	0	0	468	509	
2	0	0	0	0	455	510	
3	0	0	0	0	512	512	
4	0	0	0	0	541	511	
5	0	0	0	0	450	508	
6	0	0	0	0	320	510	
7	0	0	0	0	424	509	
8	0	0	0	0	493	511	
9	0	0	0	0	490	512	
10	0	0	0	0	499	513	
11	0	0	0	0	510	519	
12	0	0	0	0	543	515	
13	0	0	0	0	573	514	
14	0	0	0	0	575	512	
15	0	0	0	0	609	510	
0	0	0	0	0	563	514	
1	0	0	0	0	504	512	
2	0	0	0	0	489	513	
3	0	0	0	0	496	511	
4	0	0	0	0	490	513	
5	0	0	0	0	499	515	
6	0	0	0	0	515	513	
7	0	0	0	0	524	513	
8	0	0	0	0	535	510	
9	0	0	0	0	536	509	
10	0	0	0	0	527	508	
11	0	0	0	0	536	512	
12	0	0	0	0	496	515	
13	0	0	0	0	480	518	
14	0	0	0	0	486	513	
15	0	0	0	0	462	506	
0	0	0	0	0	493	505	
1	0	0	0	0	519	511	
2	0	0	0	0	518	514	
3	0	0	0	0	399	515	
4	0	0	0	0	372	512	
5	0	0	0	0	450	512	
6	0	0	0	0	499	511	
7	0	0	0	0	526	514	
8	0	0	0	0	565	514	
9	0	0	0	0	559	517	
10	0	0	0	0	599	510	
11	0	0	0	0	593	513	
12	0	0	0	0	597	504	
13	0	0	0	0	556	507	
14	0	0	0	0	361	507	
15	0	0	0	0	463	499	
0	0	0	0	0	478	505	
1	0	0	0	0	444	512	
2	0	0	0	0	483	512	
3	0	0	0	0	520	516	
4	0	0	0	0	577	513	
5	0	0	0	0	585	513	
6	0	0	0	0	539	516	
7	0	0	0	0	529	517	
8	0	0	0	0	476	508	
9	0	0	0	0	376	507	
10	0	0	0	0	431	511	
11	0	0	0	0	534	513	
12	0	0	0	0	580	521	
13	0	0	0	0	589	522	
14	0	0	0	0	380	512	
15	0	0	0	0	384	509	
0	0	0	0	0	487	508	
1	0	0	0	0	539	509	
2	0	0	0	0	516	510	
3	0	0	0	0	535	515	
4	0	0	0	0	551	514	
5	0	0	0	0	495	515	
6	0	0	0	0	523	515	
7	0	0	0	0	627	512	
8	0	0	0	0	615	512	
9	0	0	0	0	502	511	
10	0	0	0	0	387	509	
11	0	0	0	0	446	512	
12	0	0	0	0	444	511	
13	0	0	0	0	512	510	
14	0	0	0	0	578	503	
15	0	0	0	0	582	511	
0	0	0	0	0	599	518	
1	0	0	0	0	432	508	
2	0	0	0	0	361	504	
3	0	0	0	0	382	509	
4	0	0	0	0	461	511	
5	0	0	0	0	568	513	
6	0	0	0	0	469	513	
7	0	0	0	0	508	513	
8	0	0	0	0	529	515	
9	0	0	0	0	533	513	
10	0	0	0	0	534	513	
11	0	0	0	0	491	513	
12	0	0	0	0	511	513	
13	0	0	0	0	551	512	
14	0	0	0	0	567	514	
15	0	0	0	0	566	519	
0	0	0	0	0	551	524	
1	0	0	0	0	524	522	
2	0	0	0	0	373	512	
3	0	0	0	0	389	504	
4	0	0	0	0	487	503	
5	0	0	0	0	511	505	
6	0	0	0	0	497	507	
7	0	0	0	0	526	510	
8	0	0	0	0	524	507	
9	0	0	0	0	524	509	
10	0	0	0	0	523	513	
11	0	0	0	0	542	511	
12	0	0	0	0	545	510	
13	0	0	0	0	535	512	
14	0	0	0	0	555	515	
15	0	0	0	0	526	519	
0	0	0	0	0	372	512	
1	0	0	0	0	424	516	
2	0	0	0	0	521	521	
3	0	0	0	0	553	520	
4	0	0	0	0	595	513	
5	0	0	0	0	524	511	
6	0	0	0	0	483	514	
7	0	0	0	0	523	511	
8	0	0	0	0	561	514	
9	0	0	0	0	496	500	
10	0	0	0	0	367	496	
11	0	0	0	0	425	498	
12	0	0	0	0	423	505	
13	0	0	0	0	413	512	
14	0	0	0	0	504	514	
15	0	0	0	0	528	511	
0	0	0	0	0	524	519	
1	0	0	0	0	520	517	
2	0	0	0	0	508	515	
3	0	0	0	0	494	515	
4	0	0	0	0	525	513	
5	0	0	0	0	539	516	
6	0	0	0	0	583	512	
7	0	0	0	0	615	518	
8	0	0	0	0	647	519	
9	0	0	0	0	615	515	
10	0	0	0	0	416	513	
11	0	0	0	0	366	509	
12	0	0	0	0	383	504	
13	0	0	0	0	436	508	
14	0	0	0	0	483	508	
15	0	0	0	0	560	515	
0	0	0	0	0	568	512	
1	0	0	0	0	536	507	
2	0	0	0	0	528	505	
3	0	0	0	0	500	509	
4	0	0	0	0	445	511	
5	0	0	0	0	492	512	
6	0	0	0	0	553	513	
7	0	0	0	0	538	518	
8	0	0	0	0	501	515	
9	0	0	0	0	476	515	
10	0	0	0	0	444	517	
11	0	0	0	0	426	508	
12	0	0	0	0	486	512	
13	0	0	0	0	510	514	
14	0	0	0	0	527	515	
15	0	0	0	0	592	513	
0	0	0	0	0	588	515	
1	0	0	0	0	514	519	
2	0	0	0	0	548	521	
3	0	0	0	0	585	519	
4	0	0	0	0	648	511	
5	0	0	0	0	532	502	
6	0	0	0	0	338	502	
7	0	0	0	0	348	511	
8	0	0	0	0	408	500	
9	0	0	0	0	439	496	
10	0	0	0	0	484	501	
11	0	0	0	0	517	512	
12	0	0	0	0	527	515	
13	0	0	0	0	435	512	
14	0	0	0	0	451	513	
15	0	0	0	0	548	519	
0	0	0	0	0	600	519	
1	0	0	0	0	619	516	
2	0	0	0	0	601	515	
3	0	0	0	0	585	509	
4	0	0	0	0	576	511	
5	0	0	0	0	562	513	
6	0	0	0	0	391	512	
7	0	0	0	0	273	519	
8	0	0	0	0	368	519	
9	0	0	0	0	420	512	
10	0	0	0	0	550	508	
11	0	0	0	0	607	511	
12	0	0	0	0	644	505	
13	0	0	0	0	575	507	
14	0	0	0	0	567	517	
15	0	0	0	0	432	517	
0	0	0	0	0	330	501	
1	0	0	0	0	401	499	
2	0	0	0	0	455	501	
3	0	0	0	0	500	510	
4	0	0	0	0	520	517	
5	0	0	0	0	520	516	
6	0	0	0	0	511	517	
7	0	0	0	0	499	519	
8	0	0	0	0	519	519	
9	0	0	0	0	519	521	
10	0	0	0	0	540	521	
11	0	0	0	0	603	520	
12	0	0	0	0	668	512	
13	0	0	0	0	609	497	
14	0	0	0	0	423	493	
15	0	0	0	0	463	502	
0	0	0	0	0	501	512	
1	0	0	0	0	407	515	
2	0	0	0	0	392	511	
3	0	0	0	0	476	514	
4	0	0	0	0	503	511	
5	0	0	0	0	542	511	
6	0	0	0	0	573	513	
7	0	0	0	0	558	519	
8	0	0	0	0	533	521	
9	0	0	0	0	536	514	
10	0	0	0	0	422	518	
11	0	0	0	0	394	517	
12	0	0	0	0	487	508	
13	0	0	0	0	559	503	
14	0	0	0	0	627	504	
15	0	0	0	0	577	511	
0	0	0	0	0	521	513	
1	0	0	0	0	508	514	
2	0	0	0	0	483	512	
3	0	0	0	0	413	514	
4	0	0	0	0	472	512	
5	0	0	0	0	544	515	
6	0	0	0	0	502	512	
7	0	0	0	0	483	511	
8	0	0	0	0	475	518	
9	0	0	0	0	536	519	
10	0	0	0	0	527	515	
11	0	0	0	0	575	514	
12	0	0	0	0	495	507	
13	0	0	0	0	316	497	
14	0	0	0	0	371	497	
15	0	0	0	0	440	504	
0	0	0	0	0	555	513	
1	0	0	0	0	582	520	
2	0	0	0	0	561	515	
3	0	0	0	0	621	517	
4	0	0	0	0	727	515	
5	0	0	0	0	651	500	
6	0	0	0	0	335	502	
7	0	0	0	0	328	510	
8	0	0	0	0	430	516	
9	0	0	0	0	464	518	
10	0	0	0	0	459	518	
11	0	0	0	0	520	514	
12	0	0	0	0	553	510	
13	0	0	0	0	596	511	
14	0	0	0	0	602	508	
15	0	0	0	0	583	519	
0	0	0	0	0	492	521	
1	0	0	0	0	459	515	
2	0	0	0	0	579	517	
3	0	0	0	0	423	503	
4	0	0	0	0	415	508	
5	0	0	0	0	543	503	
6	0	0	0	0	467	502	
7	0	0	0	0	387	506	
8	0	0	0	0	355	511	
9	0	0	0	0	462	514	
10	0	0	0	0	484	513	
11	0	0	0	0	506	515	
12	0	0	0	0	527	515	
13	0	0	0	0	560	516	
14	0	0	0	0	563	514	
15	0	0	0	0	543	513	
0	0	0	0	0	522	515	
1	0	0	0	0	506	515	
2	0	0	0	0	512	514	
3	0	0	0	0	485	513	
4	0	0	0	0	458	511	
5	0	0	0	0	488	510	
6	0	0	0	0	556	510	
7	0	0	0	0	618	511	
8	0	0	0	0	580	509	
9	0	0	0	0	513	505	
10	0	0	0	0	519	508	
11	0	0	0	0	527	516	
12	0	0	0	0	527	515	
13	0	0	0	0	550	521	
14	0	0	0	0	543	521	
15	0	0	0	0	526	523	
0	0	0	0	0	463	503	
1	0	0	0	0	475	479	
2	0	0	0	0	479	495	
3	0	0	0	0	321	505	
4	0	0	0	0	415	514	
5	0	0	0	0	530	518	
6	0	0	0	0	566	516	
7	0	0	0	0	572	515	
8	0	0	0	0	497	508	
9	0	0	0	0	497	513	
10	0	0	0	0	434	516	
11	0	0	0	0	451	515	
12	0	0	0	0	491	514	
13	0	0	0	0	574	516	
14	0	0	0	0	617	521	
15	0	0	0	0	572	525	
0	0	0	0	0	521	510	
1	0	0	0	0	550	495	
2	0	0	0	0	535	500	
3	0	0	0	0	421	513	
4	0	0	0	0	415	514	
5	0	0	0	0	412	515	
6	0	0	0	0	454	512	
7	0	0	0	0	529	512	
8	0	0	0	0	508	514	
9	0	0	0	0	444	515	
10	0	0	0	0	527	515	
11	0	0	0	0	571	519	
12	0	0	0	0	561	513	
13	0	0	0	0	540	508	
14	0	0	0	0	552	512	
15	0	0	0	0	460	511	
0	0	0	0	0	495	510	
1	0	0	0	0	494	507	
2	0	0	0	0	489	512	
3	0	0	0	0	505	515	
4	0	0	0	0	480	513	
5	0	0	0	0	534	512	
6	0	0	0	0	528	508	
7	0	0	0	0	419	510	
8	0	0	0	0	508	511	
9	0	0	0	0	537	513	
10	0	0	0	0	486	514	
11	0	0	0	0	467	512	
12	0	0	0	0	514	513	
13	0	0	0	0	517	514	
14	0	0	0	0	535	516	
15	0	0	0	0	536	515	
0	0	0	0	0	519	510	
1	0	0	0	0	534	515	
2	0	0	0	0	515	512	
3	0	0	0	0	452	507	
4	0	0	0	0	467	511	
5	0	0	0	0	499	506	
6	0	0	0	0	502	504	
7	0	0	0	0	486	508	
8	0	0	0	0	516	507	
9	0	0	0	0	546	510	
10	0	0	0	0	565	513	
11	0	0	0	0	530	520	
12	0	0	0	0	550	515	
13	0	0	0	0	564	510	
14	0	0	0	0	536	512	
15	0	0	0	0	384	512	
0	0	0	0	0	429	517	
1	0	0	0	0	547	520	
2	0	0	0	0	543	511	
3	0	0	0	0	423	506	
4	0	0	0	0	412	509	
5	0	0	0	0	498	511	
6	0	0	0	0	521	511	
7	0	0	0	0	509	511	
8	0	0	0	0	504	511	
9	0	0	0	0	508	513	
10	0	0	0	0	535	511	
11	0	0	0	0	542	512	
12	0	0	0	0	530	512	
13	0	0	0	0	520	512	
14	0	0	0	0	529	512	
15	0	0	0	0	508	514	
0	0	0	0	0	506	510	
1	0	0	0	0	543	510	
2	0	0	0	0	531	512	
3	0	0	0	0	455	516	
4	0	0	0	0	463	517	
5	0	0	0	0	560	518	
6	0	0	0	0	546	506	
7	0	0	0	0	530	502	
8	0	0	0	0	607	507	
9	0	0	0	0	570	511	
10	0	0	0	0	548	512	
11	0	0	0	0	475	507	
12	0	0	0	0	207	510	
13	0	0	0	0	386	516	
14	0	0	0	0	512	508	
15	0	0	0	0	412	509	
0	0	0	0	0	388	513	
1	0	0	0	0	524	517	
2	0	0	0	0	510	515	
3	0	0	0	0	512	515	
4	0	0	0	0	520	519	
5	0	0	0	0	534	512	
6	0	0	0	0	546	508	
7	0	0	0	0	527	509	
8	0	0	0	0	524	514	
9	0	0	0	0	561	514	
10	0	0	0	0	587	511	
11	0	0	0	0	519	509	
12	0	0	0	0	529	512	
13	0	0	0	0	550	513	
14	0	0	0	0	547	512	
15	0	0	0	0	540	513	
0	0	0	0	0	541	516	
1	0	0	0	0	498	517	
2	0	0	0	0	422	510	
3	0	0	0	0	410	511	
4	0	0	0	0	441	510	
5	0	0	0	0	470	518	
6	0	0	0	0	453	510	
7	0	0	0	0	560	509	
8	0	0	0	0	614	511	
9	0	0	0	0	536	509	
10	0	0	0	0	508	509	
11	0	0	0	0	533	509	
12	0	0	0	0	495	509	
13	0	0	0	0	497	511	
14	0	0	0	0	421	509	
15	0	0	0	0	423	508	
0	0	0	0	0	482	513	
1	0	0	0	0	496	517	
2	0	0	0	0	496	521	
3	0	0	0	0	500	515	
4	0	0	0	0	480	510	
5	0	0	0	0	566	512	
6	0	0	0	0	571	504	
7	0	0	0	0	569	504	
8	0	0	0	0	613	510	
9	0	0	0	0	578	509	
10	0	0	0	0	547	510	
11	0	0	0	0	521	515	
12	0	0	0	0	467	514	
13	0	0	0	0	388	510	
14	0	0	0	0	482	511	
15	0	0	0	0	522	513	
0	0	0	0	0	539	512	
1	0	0	0	0	543	513	
2	0	0	0	0	463	513	
3	0	0	0	0	342	515	
4	0	0	0	0	428	520	
5	0	0	0	0	500	518	
6	0	0	0	0	529	515	
7	0	0	0	0	534	508	
8	0	0	0	0	550	500	
9	0	0	0	0	536	505	
10	0	0	0	0	508	507	
11	0	0	0	0	435	509	
12	0	0	0	0	477	510	
13	0	0	0	0	528	510	
14	0	0	0	0	532	514	
15	0	0	0	0	515	517	
0	0	0	0	0	527	518	
1	0	0	0	0	547	519	
2	0	0	0	0	505	515	
3	0	0	0	0	491	509	
4	0	0	0	0	595	506	
5	0	0	0	0	568	508	
6	0	0	0	0	390	512	
7	0	0	0	0	346	517	
8	0	0	0	0	472	515	
9	0	0	0	0	534	507	
10	0	0	0	0	502	511	
11	0	0	0	0	550	510	
12	0	0	0	0	615	512	
13	0	0	0	0	567	511	
14	0	0	0	0	539	516	
15	0	0	0	0	393	515	
0	0	0	0	0	444	513	
1	0	0	0	0	583	504	
2	0	0	0	0	639	508	
3	0	0	0	0	579	511	
4	0	0	0	0	476	511	
5	0	0	0	0	448	512	
6	0	0	0	0	295	516	
7	0	0	0	0	263	507	
8	0	0	0	0	467	516	
9	0	0	0	0	540	510	
10	0	0	0	0	547	507	
11	0	0	0	0	560	512	
12	0	0	0	0	559	515	
13	0	0	0	0	534	512	
14	0	0	0	0	513	511	
15	0	0	0	0	500	512	
0	0	0	0	0	492	514	
1	0	0	0	0	526	520	
2	0	0	0	0	554	522	
3	0	0	0	0	593	527	
4	0	0	0	0	628	524	
5	0	0	0	0	644	507	
6	0	0	0	0	592	489	
7	0	0	0	0	333	483	
8	0	0	0	0	363	499	
9	0	0	0	0	406	505	
10	0	0	0	0	441	511	
11	0	0	0	0	530	516	
12	0	0	0	0	556	518	
13	0	0	0	0	514	515	
14	0	0	0	0	487	517	
15	0	0	0	0	464	516	
0	0	0	0	0	479	515	
1	0	0	0	0	450	511	
2	0	0	0	0	471	512	
3	0	0	0	0	515	514	
4	0	0	0	0	569	516	
5	0	0	0	0	596	521	
6	0	0	0	0	639	527	
7	0	0	0	0	603	524	
8	0	0	0	0	570	505	
9	0	0	0	0	435	494	
10	0	0	0	0	447	496	
11	0	0	0	0	453	507	
12	0	0	0	0	411	513	
13	0	0	0	0	422	508	
14	0	0	0	0	521	507	
15	0	0	0	0	549	504	
0	0	0	0	0	407	508	
1	0	0	0	0	422	510	
2	0	0	0	0	476	511	
3	0	0	0	0	513	514	
4	0	0	0	0	519	516	
5	0	0	0	0	553	514	
6	0	0	0	0	555	514	
7	0	0	0	0	526	517	
8	0	0	0	0	526	523	
9	0	0	0	0	547	527	
10	0	0	0	0	553	515	
11	0	0	0	0	561	513	
12	0	0	0	0	574	499	
13	0	0	0	0	491	505	
14	0	0	0	0	399	513	
15	0	0	0	0	348	512	
0	0	0	0	0	393	509	
1	0	0	0	0	479	509	
2	0	0	0	0	566	512	
3	0	0	0	0	559	508	
4	0	0	0	0	547	513	
5	0	0	0	0	524	513	
6	0	0	0	0	524	510	
7	0	0	0	0	516	508	
8	0	0	0	0	513	508	
9	0	0	0	0	524	515	
10	0	0	0	0	526	515	
11	0	0	0	0	525	512	
12	0	0	0	0	527	509	
13	0	0	0	0	547	511	
14	0	0	0	0	520	511	
15	0	0	0	0	535	515	
0	0	0	0	0	551	518	
1	0	0	0	0	556	517	
2	0	0	0	0	569	518	
3	0	0	0	0	578	508	
4	0	0	0	0	399	510	
5	0	0	0	0	344	512	
6	0	0	0	0	472	519	
7	0	0	0	0	572	523	
8	0	0	0	0	357	513	
9	0	0	0	0	363	508	
10	0	0	0	0	407	496	
11	0	0	0	0	434	502	
12	0	0	0	0	471	509	
13	0	0	0	0	512	511	
14	0	0	0	0	508	511	
15	0	0	0	0	558	513	
0	0	0	0	0	620	513	
1	0	0	0	0	643	513	
2	0	0	0	0	577	519	
3	0	0	0	0	627	515	
4	0	0	0	0	604	507	
5	0	0	0	0	517	504	
6	0	0	0	0	428	508	
7	0	0	0	0	475	513	
8	0	0	0	0	468	519	
9	0	0	0	0	436	511	
10	0	0	0	0	431	512	
11	0	0	0	0	436	520	
12	0	0	0	0	499	521	
13	0	0	0	0	515	521	
14	0	0	0	0	496	514	
15	0	0	0	0	514	511	
0	0	0	0	0	582	516	
1	0	0	0	0	608	512	
2	0	0	0	0	644	504	
3	0	0	0	0	674	490	
4	0	0	0	0	647	491	
5	0	0	0	0	524	505	
6	0	0	0	0	262	518	
7	0	0	0	0	256	516	
8	0	0	0	0	368	509	
9	0	0	0	0	396	508	
10	0	0	0	0	450	515	
11	0	0	0	0	455	515	
12	0	0	0	0	409	516	
13	0	0	0	0	499	514	
14	0	0	0	0	558	513	
15	0	0	0	0	558	515	
0	0	0	0	0	550	515	
1	0	0	0	0	559	514	
2	0	0	0	0	564	516	
3	0	0	0	0	570	518	
4	0	0	0	0	579	511	
5	0	0	0	0	600	502	
6	0	0	0	0	528	509	
7	0	0	0	0	354	507	
8	0	0	0	0	474	513	
9	0	0	0	0	564	519	
10	0	0	0	0	539	512	
11	0	0	0	0	504	515	
12	0	0	0	0	512	517	
13	0	0	0	0	352	511	
14	0	0	0	0	325	514	
15	0	0	0	0	526	518	
0	0	0	0	0	685	516	
1	0	0	0	0	691	512	
2	0	0	0	0	637	502	
3	0	0	0	0	504	503	
4	0	0	0	0	502	513	
5	0	0	0	0	298	510	
6	0	0	0	0	350	497	
7	0	0	0	0	485	497	
8	0	0	0	0	496	507	
9	0	0	0	0	508	515	
10	0	0	0	0	526	519	
11	0	0	0	0	521	519	
12	0	0	0	0	517	515	
13	0	0	0	0	548	513	
14	0	0	0	0	553	515	
15	0	0	0	0	485	518	
0	0	0	0	0	417	511	
1	0	0	0	0	460	517	
2	0	0	0	0	551	510	
3	0	0	0	0	557	513	
4	0	0	0	0	515	513	
5	0	0	0	0	500	507	
6	0	0	0	0	520	511	
7	0	0	0	0	549	513	
8	0	0	0	0	497	508	
9	0	0	0	0	535	513	
10	0	0	0	0	531	519	
11	0	0	0	0	518	512	
12	0	0	0	0	583	513	
13	0	0	0	0	543	510	
14	0	0	0	0	498	508	
15	0	0	0	0	527	512	
0	0	0	0	0	544	508	
1	0	0	0	0	537	506	
2	0	0	0	0	347	512	
3	0	0	0	0	419	518	
4	0	0	0	0	571	513	
5	0	0	0	0	570	504	
6	0	0	0	0	546	511	
7	0	0	0	0	382	508	
8	0	0	0	0	391	507	
9	0	0	0	0	323	508	
10	0	0	0	0	452	514	
11	0	0	0	0	569	519	
12	0	0	0	0	628	516	
13	0	0	0	0	619	522	
14	0	0	0	0	568	526	
15	0	0	0	0	484	527	
0	0	0	0	0	376	517	
1	0	0	0	0	396	503	
2	0	0	0	0	528	503	
3	0	0	0	0	562	498	
4	0	0	0	0	540	503	
5	0	0	0	0	552	513	
6	0	0	0	0	561	508	
7	0	0	0	0	411	507	
8	0	0	0	0	462	513	
9	0	0	0	0	478	513	
10	0	0	0	0	504	518	
11	0	0	0	0	455	518	
12	0	0	0	0	466	515	
13	0	0	0	0	495	514	
14	0	0	0	0	524	515	
15	0	0	0	0	609	516	
0	0	0	0	0	599	519	
1	0	0	0	0	473	513	
2	0	0	0	0	490	510	
3	0	0	0	0	560	503	
4	0	0	0	0	499	504	
5	0	0	0	0	459	511	
6	0	0	0	0	504	515	
7	0	0	0	0	474	519	
8	0	0	0	0	391	505	
9	0	0	0	0	465	492	
10	0	0	0	0	551	499	
11	0	0	0	0	479	505	
12	0	0	0	0	566	519	
13	0	0	0	0	701	528	
14	0	0	0	0	550	514	
15	0	0	0	0	476	511	
0	0	0	0	0	492	508	
1	0	0	0	0	479	512	
2	0	0	0	0	504	513	
3	0	0	0	0	533	514	
4	0	0	0	0	561	514	
5	0	0	0	0	552	516	
6	0	0	0	0	482	515	
7	0	0	0	0	494	520	
8	0	0	0	0	502	520	
9	0	0	0	0	458	510	
10	0	0	0	0	440	503	
11	0	0	0	0	440	504	
12	0	0	0	0	432	510	
13	0	0	0	0	508	521	
14	0	0	0	0	691	515	
15	0	0	0	0	652	507	
0	0	0	0	0	555	511	
1	0	0	0	0	591	510	
2	0	0	0	0	457	506	
3	0	0	0	0	277	504	
4	0	0	0	0	225	510	
5	0	0	0	0	369	515	
6	0	0	0	0	467	516	
7	0	0	0	0	513	516	
8	0	0	0	0	528	519	
9	0	0	0	0	581	515	
10	0	0	0	0	541	511	
11	0	0	0	0	528	503	
12	0	0	0	0	578	504	
13	0	0	0	0	605	504	
14	0	0	0	0	638	508	
15	0	0	0	0	586	515	
0	0	0	0	0	465	514	
1	0	0	0	0	396	511	
2	0	0	0	0	468	511	
3	0	0	0	0	515	517	
4	0	0	0	0	500	508	
5	0	0	0	0	480	511	
6	0	0	0	0	521	519	
7	0	0	0	0	507	519	
8	0	0	0	0	449	517	
9	0	0	0	0	482	516	
10	0	0	0	0	522	515	
11	0	0	0	0	524	518	
12	0	0	0	0	540	520	
13	0	0	0	0	515	509	
14	0	0	0	0	449	508	
15	0	0	0	0	479	507	
0	0	0	0	0	526	506	
1	0	0	0	0	473	518	
2	0	0	0	0	501	521	
3	0	0	0	0	578	520	
4	0	0	0	0	562	499	
5	0	0	0	0	472	494	
6	0	0	0	0	476	510	
7	0	0	0	0	474	516	
8	0	0	0	0	472	514	
9	0	0	0	0	494	510	
10	0	0	0	0	520	504	
11	0	0	0	0	584	505	
12	0	0	0	0	589	511	
13	0	0	0	0	526	513	
14	0	0	0	0	499	515	
15	0	0	0	0	502	517	
0	0	0	0	0	498	515	
1	0	0	0	0	463	512	
2	0	0	0	0	512	513	
3	0	0	0	0	499	515	
4	0	0	0	0	528	505	
5	0	0	0	0	557	508	
6	0	0	0	0	515	514	
7	0	0	0	0	430	514	
8	0	0	0	0	444	510	
9	0	0	0	0	472	511	
10	0	0	0	0	551	516	
11	0	0	0	0	572	524	
12	0	0	0	0	634	523	
13	0	0	0	0	669	513	
14	0	0	0	0	379	504	
15	0	0	0	0	350	508	
0	0	0	0	0	276	507	
1	0	0	0	0	486	508	
2	0	0	0	0	434	513	
3	0	0	0	0	396	513	
4	0	0	0	0	462	509	
5	0	0	0	0	673	505	
6	0	0	0	0	661	505	
7	0	0	0	0	620	503	
8	0	0	0	0	601	508	
9	0	0	0	0	583	508	
10	0	0	0	0	448	513	
11	0	0	0	0	318	516	
12	0	0	0	0	355	518	
13	0	0	0	0	436	516	
14	0	0	0	0	543	516	
15	0	0	0	0	627	515	
0	0	0	0	0	471	514	
1	0	0	0	0	409	512	
2	0	0	0	0	511	511	
3	0	0	0	0	547	513	
4	0	0	0	0	538	517	
5	0	0	0	0	527	518	
6	0	0	0	0	536	510	
7	0	0	0	0	571	513	
8	0	0	0	0	608	513	
9	0	0	0	0	543	511	
10	0	0	0	0	481	507	
11	0	0	0	0	485	507	
12	0	0	0	0	499	503	
13	0	0	0	0	498	505	
14	0	0	0	0	531	507	
15	0	0	0	0	477	510	
0	0	0	0	0	400	515	
1	0	0	0	0	399	515	
2	0	0	0	0	478	511	
3	0	0	0	0	492	517	
4	0	0	0	0	504	515	
5	0	0	0	0	555	503	
6	0	0	0	0	543	508	
7	0	0	0	0	512	513	
8	0	0	0	0	487	512	
9	0	0	0	0	489	512	
10	0	0	0	0	532	515	
11	0	0	0	0	584	515	
12	0	0	0	0	624	519	
13	0	0	0	0	596	517	
14	0	0	0	0	570	512	
15	0	0	0	0	472	511	
0	0	0	0	0	410	511	
1	0	0	0	0	525	512	
2	0	0	0	0	537	511	
3	0	0	0	0	419	510	
4	0	0	0	0	412	511	
5	0	0	0	0	472	511	
6	0	0	0	0	392	507	
7	0	0	0	0	442	508	
8	0	0	0	0	551	511	
9	0	0	0	0	626	519	
10	0	0	0	0	591	528	
11	0	0	0	0	518	527	
12	0	0	0	0	564	517	
13	0	0	0	0	411	492	
14	0	0	0	0	417	493	
15	0	0	0	0	427	512	
0	0	0	0	0	510	513	
1	0	0	0	0	576	507	
2	0	0	0	0	521	507	
3	0	0	0	0	449	506	
4	0	0	0	0	442	505	
5	0	0	0	0	508	514	
6	0	0	0	0	527	512	
7	0	0	0	0	540	508	
8	0	0	0	0	554	510	
9	0	0	0	0	561	512	
10	0	0	0	0	542	515	
11	0	0	0	0	504	513	
12	0	0	0	0	408	517	
13	0	0	0	0	414	519	
14	0	0	0	0	536	518	
15	0	0	0	0	567	513	
0	0	0	0	0	542	513	
1	0	0	0	0	509	510	
2	0	0	0	0	455	519	
3	0	0	0	0	438	524	
4	0	0	0	0	534	510	
5	0	0	0	0	561	509	
6	0	0	0	0	544	508	
7	0	0	0	0	590	511	
8	0	0	0	0	541	509	
9	0	0	0	0	557	502	
10	0	0	0	0	573	505	
11	0	0	0	0	552	504	
12	0	0	0	0	403	513	
13	0	0	0	0	374	520	
14	0	0	0	0	541	521	
15	0	0	0	0	337	517	
0	0	0	0	0	414	508	
1	0	0	0	0	609	506	
2	0	0	0	0	507	508	
3	0	0	0	0	390	508	
4	0	0	0	0	457	510	
5	0	0	0	0	517	510	
6	0	0	0	0	531	506	
7	0	0	0	0	544	518	
8	0	0	0	0	580	524	
9	0	0	0	0	615	526	
10	0	0	0	0	567	522	
11	0	0	0	0	492	523	
12	0	0	0	0	464	518	
13	0	0	0	0	491	511	
14	0	0	0	0	477	496	
15	0	0	0	0	482	497	
0	0	0	0	0	504	497	
1	0	0	0	0	469	501	
2	0	0	0	0	471	503	
3	0	0	0	0	508	508	
4	0	0	0	0	548	511	
5	0	0	0	0	568	518	
6	0	0	0	0	553	524	
7	0	0	0	0	537	527	
8	0	0	0	0	496	524	
9	0	0	0	0	447	506	
10	0	0	0	0	406	508	
11	0	0	0	0	443	516	
12	0	0	0	0	559	519	
13	0	0	0	0	557	515	
14	0	0	0	0	520	510	
15	0	0	0	0	519	506	
0	0	0	0	0	533	504	
1	0	0	0	0	524	508	
2	0	0	0	0	499	509	
3	0	0	0	0	517	515	
4	0	0	0	0	455	514	
5	0	0	0	0	451	515	
6	0	0	0	0	502	507	
7	0	0	0	0	540	508	
8	0	0	0	0	614	513	
9	0	0	0	0	612	515	
10	0	0	0	0	571	519	
11	0	0	0	0	407	510	
12	0	0	0	0	351	505	
13	0	0	0	0	427	508	
14	0	0	0	0	517	511	
15	0	0	0	0	540	514	
0	0	0	0	0	571	512	
1	0	0	0	0	563	512	
2	0	0	0	0	557	515	
3	0	0	0	0	541	511	
4	0	0	0	0	306	505	
5	0	0	0	0	419	511	
6	0	0	0	0	523	513	
7	0	0	0	0	525	513	
8	0	0	0	0	389	514	
9	0	0	0	0	495	517	
10	0	0	0	0	567	517	
11	0	0	0	0	504	512	
12	0	0	0	0	467	504	
13	0	0	0	0	502	505	
14	0	0	0	0	495	515	
15	0	0	0	0	474	518	
0	0	0	0	0	490	513	
1	0	0	0	0	491	502	
2	0	0	0	0	563	500	
3	0	0	0	0	582	510	
4	0	0	0	0	508	511	
5	0	0	0	0	479	518	
6	0	0	0	0	517	523	
7	0	0	0	0	513	519	
8	0	0	0	0	527	515	
9	0	0	0	0	523	514	
10	0	0	0	0	543	512	
11	0	0	0	0	541	513	
12	0	0	0	0	529	513	
13	0	0	0	0	487	510	
14	0	0	0	0	558	514	
15	0	0	0	0	571	510	
0	0	0	0	0	551	510	
1	0	0	0	0	389	502	
2	0	0	0	0	461	503	
3	0	0	0	0	527	508	
