# OpenSignals Text File Format. Version 1
# {"98:D3:71:FE:38:C0": {"position": 0, "device": "bitalino_rev", "device name": "98:D3:71:FE:38:C0", "device connection": "BTH98:D3:71:FE:38:C0", "sampling rate": 1000, "resolution": [4, 1, 1, 1, 1, 10, 10], "firmware version": 1282, "comments": "", "keywords": "", "mode": 0, "sync interval": 2, "date": "2026-6-12", "time": "12:30:21.934", "channels": [1, 2], "sensor": ["EMGBITREV", "EMGBITREV"], "label": ["A1", "A2"], "column": ["nSeq", "I1", "I2", "O1", "O2", "A1", "A2"], "special": [{}, {}], "digital IO": [0, 0, 1, 1]}}
# EndOfHeader
0	0	0	0	0	505	511	
1	0	0	0	0	506	513	
2	0	0	0	0	506	512	
3	0	0	0	0	505	513	
4	0	0	0	0	506	513	
5	0	0	0	0	504	510	
6	0	0	0	0	505	511	
7	0	0	0	0	507	512	
8	0	0	0	0	505	510	
9	0	0	0	0	505	513	
10	0	0	0	0	505	511	
11	0	0	0	0	505	512	
12	0	0	0	0	505	511	
13	0	0	0	0	506	513	
14	0	0	0	0	506	513	
15	0	0	0	0	507	512	
0	0	0	0	0	507	512	
1	0	0	0	0	505	512	
2	0	0	0	0	504	512	
3	0	0	0	0	504	511	
4	0	0	0	0	504	511	
5	0	0	0	0	505	512	
6	0	0	0	0	506	513	
7	0	0	0	0	505	511	
8	0	0	0	0	505	511	
9	0	0	0	0	506	512	
10	0	0	0	0	506	511	
11	0	0	0	0	505	512	
12	0	0	0	0	505	511	
13	0	0	0	0	505	512	
14	0	0	0	0	506	513	
15	0	0	0	0	506	512	
0	0	0	0	0	504	510	
1	0	0	0	0	507	512	
2	0	0	0	0	506	511	
3	0	0	0	0	507	511	
4	0	0	0	0	505	513	
5	0	0	0	0	503	512	
6	0	0	0	0	505	512	
7	0	0	0	0	506	510	
8	0	0	0	0	505	512	
9	0	0	0	0	505	512	
10	0	0	0	0	506	512	
11	0	0	0	0	504	513	
12	0	0	0	0	505	510	
13	0	0	0	0	504	512	
14	0	0	0	0	504	510	
15	0	0	0	0	508	511	
0	0	0	0	0	508	511	
1	0	0	0	0	504	512	
2	0	0	0	0	504	511	
3	0	0	0	0	505	509	
4	0	0	0	0	505	511	
5	0	0	0	0	505	512	
6	0	0	0	0	507	513	
7	0	0	0	0	506	513	
8	0	0	0	0	504	514	
9	0	0	0	0	507	513	
10	0	0	0	0	503	511	
11	0	0	0	0	506	510	
12	0	0	0	0	504	510	
13	0	0	0	0	504	511	
14	0	0	0	0	507	512	
15	0	0	0	0	506	512	
0	0	0	0	0	504	512	
1	0	0	0	0	505	513	
2	0	0	0	0	504	513	
3	0	0	0	0	505	513	
4	0	0	0	0	504	513	
5	0	0	0	0	504	512	
6	0	0	0	0	505	511	
7	0	0	0	0	505	511	
8	0	0	0	0	504	511	
9	0	0	0	0	505	512	
10	0	0	0	0	506	511	
11	0	0	0	0	505	510	
12	0	0	0	0	507	511	
13	0	0	0	0	507	510	
14	0	0	0	0	507	513	
15	0	0	0	0	505	512	
0	0	0	0	0	506	512	
1	0	0	0	0	506	511	
2	0	0	0	0	507	511	
3	0	0	0	0	507	512	
4	0	0	0	0	504	511	
5	0	0	0	0	504	512	
6	0	0	0	0	504	512	
7	0	0	0	0	507	511	
8	0	0	0	0	508	512	
9	0	0	0	0	505	511	
10	0	0	0	0	505	511	
11	0	0	0	0	506	512	
12	0	0	0	0	507	515	
13	0	0	0	0	505	512	
14	0	0	0	0	504	510	
15	0	0	0	0	506	512	
0	0	0	0	0	505	515	
1	0	0	0	0	507	512	
2	0	0	0	0	506	513	
3	0	0	0	0	504	511	
4	0	0	0	0	506	510	
5	0	0	0	0	505	511	
6	0	0	0	0	505	511	
7	0	0	0	0	504	512	
8	0	0	0	0	506	512	
9	0	0	0	0	504	512	
10	0	0	0	0	503	511	
11	0	0	0	0	504	511	
12	0	0	0	0	505	511	
13	0	0	0	0	505	513	
14	0	0	0	0	506	513	
15	0	0	0	0	503	512	
0	0	0	0	0	505	511	
1	0	0	0	0	506	513	
2	0	0	0	0	504	513	
3	0	0	0	0	505	513	
4	0	0	0	0	505	510	
5	0	0	0	0	504	510	
6	0	0	0	0	507	512	
7	0	0	0	0	507	512	
8	0	0	0	0	505	511	
9	0	0	0	0	505	510	
10	0	0	0	0	504	512	
11	0	0	0	0	507	512	
12	0	0	0	0	505	513	
13	0	0	0	0	507	512	
14	0	0	0	0	504	512	
15	0	0	0	0	505	513	
0	0	0	0	0	505	512	
1	0	0	0	0	506	512	
2	0	0	0	0	506	512	
3	0	0	0	0	508	511	
4	0	0	0	0	505	512	
5	0	0	0	0	504	514	
6	0	0	0	0	505	513	
7	0	0	0	0	506	511	
8	0	0	0	0	505	512	
9	0	0	0	0	505	512	
10	0	0	0	0	507	511	
11	0	0	0	0	506	513	
12	0	0	0	0	506	509	
13	0	0	0	0	506	510	
14	0	0	0	0	506	511	
15	0	0	0	0	504	512	
0	0	0	0	0	505	513	
1	0	0	0	0	505	513	
2	0	0	0	0	504	513	
3	0	0	0	0	504	511	
4	0	0	0	0	506	511	
5	0	0	0	0	505	513	
6	0	0	0	0	505	510	
7	0	0	0	0	505	511	
8	0	0	0	0	504	512	
9	0	0	0	0	507	513	
10	0	0	0	0	505	511	
11	0	0	0	0	504	511	
12	0	0	0	0	509	511	
13	0	0	0	0	507	513	
14	0	0	0	0	504	512	
15	0	0	0	0	505	511	
0	0	0	0	0	504	512	
1	0	0	0	0	506	509	
2	0	0	0	0	506	512	
3	0	0	0	0	505	510	
4	0	0	0	0	504	510	
5	0	0	0	0	506	511	
6	0	0	0	0	507	512	
7	0	0	0	0	506	513	
8	0	0	0	0	505	515	
9	0	0	0	0	504	510	
10	0	0	0	0	504	511	
11	0	0	0	0	507	512	
12	0	0	0	0	506	511	
13	0	0	0	0	505	512	
14	0	0	0	0	506	513	
15	0	0	0	0	507	512	
0	0	0	0	0	507	513	
1	0	0	0	0	506	512	
2	0	0	0	0	507	513	
3	0	0	0	0	505	512	
4	0	0	0	0	505	511	
5	0	0	0	0	504	512	
6	0	0	0	0	504	510	
7	0	0	0	0	505	510	
8	0	0	0	0	506	511	
9	0	0	0	0	506	512	
10	0	0	0	0	505	511	
11	0	0	0	0	505	511	
12	0	0	0	0	504	513	
13	0	0	0	0	504	513	
14	0	0	0	0	504	511	
15	0	0	0	0	506	512	
0	0	0	0	0	504	512	
1	0	0	0	0	506	511	
2	0	0	0	0	507	512	
3	0	0	0	0	505	515	
4	0	0	0	0	506	512	
5	0	0	0	0	506	511	
6	0	0	0	0	504	512	
7	0	0	0	0	505	513	
8	0	0	0	0	505	511	
9	0	0	0	0	504	512	
10	0	0	0	0	505	512	
11	0	0	0	0	504	511	
12	0	0	0	0	507	511	
13	0	0	0	0	506	513	
14	0	0	0	0	505	510	
15	0	0	0	0	505	512	
0	0	0	0	0	505	511	
1	0	0	0	0	508	513	
2	0	0	0	0	505	513	
3	0	0	0	0	506	512	
4	0	0	0	0	504	511	
5	0	0	0	0	505	511	
6	0	0	0	0	506	512	
7	0	0	0	0	503	512	
8	0	0	0	0	506	511	
9	0	0	0	0	505	512	
10	0	0	0	0	505	514	
11	0	0	0	0	506	513	
12	0	0	0	0	505	512	
13	0	0	0	0	505	511	
14	0	0	0	0	505	513	
15	0	0	0	0	504	513	
0	0	0	0	0	506	513	
1	0	0	0	0	504	512	
2	0	0	0	0	505	510	
3	0	0	0	0	504	512	
4	0	0	0	0	505	513	
5	0	0	0	0	505	511	
6	0	0	0	0	506	509	
7	0	0	0	0	505	512	
8	0	0	0	0	508	509	
9	0	0	0	0	505	512	
10	0	0	0	0	505	513	
11	0	0	0	0	504	512	
12	0	0	0	0	507	515	
13	0	0	0	0	505	512	
14	0	0	0	0	507	512	
15	0	0	0	0	506	510	
0	0	0	0	0	505	511	
1	0	0	0	0	504	511	
2	0	0	0	0	504	512	
3	0	0	0	0	506	512	
4	0	0	0	0	507	515	
5	0	0	0	0	504	512	
6	0	0	0	0	507	512	
7	0	0	0	0	504	514	
8	0	0	0	0	507	512	
9	0	0	0	0	503	513	
10	0	0	0	0	505	510	
11	0	0	0	0	506	513	
12	0	0	0	0	506	510	
13	0	0	0	0	507	511	
14	0	0	0	0	506	511	
15	0	0	0	0	504	511	
0	0	0	0	0	505	514	
1	0	0	0	0	505	512	
2	0	0	0	0	505	512	
3	0	0	0	0	507	511	
4	0	0	0	0	506	512	
5	0	0	0	0	505	511	
6	0	0	0	0	505	511	
7	0	0	0	0	504	511	
8	0	0	0	0	505	511	
9	0	0	0	0	505	511	
10	0	0	0	0	504	509	
11	0	0	0	0	504	511	
12	0	0	0	0	507	512	
13	0	0	0	0	506	511	
14	0	0	0	0	507	514	
15	0	0	0	0	504	512	
0	0	0	0	0	504	512	
1	0	0	0	0	506	512	
2	0	0	0	0	504	511	
3	0	0	0	0	506	511	
4	0	0	0	0	504	512	
5	0	0	0	0	503	512	
6	0	0	0	0	505	511	
7	0	0	0	0	506	511	
8	0	0	0	0	507	510	
9	0	0	0	0	507	510	
10	0	0	0	0	504	512	
11	0	0	0	0	505	511	
12	0	0	0	0	507	512	
13	0	0	0	0	504	512	
14	0	0	0	0	504	513	
15	0	0	0	0	506	512	
0	0	0	0	0	506	513	
1	0	0	0	0	505	513	
2	0	0	0	0	505	512	
3	0	0	0	0	506	511	
4	0	0	0	0	507	511	
5	0	0	0	0	507	513	
6	0	0	0	0	505	513	
7	0	0	0	0	505	512	
8	0	0	0	0	504	511	
9	0	0	0	0	504	512	
10	0	0	0	0	506	513	
11	0	0	0	0	507	513	
12	0	0	0	0	505	512	
13	0	0	0	0	505	512	
14	0	0	0	0	505	510	
15	0	0	0	0	504	510	
0	0	0	0	0	505	512	
1	0	0	0	0	504	512	
2	0	0	0	0	503	511	
3	0	0	0	0	507	514	
4	0	0	0	0	507	511	
5	0	0	0	0	506	511	
6	0	0	0	0	508	513	
7	0	0	0	0	507	511	
8	0	0	0	0	506	513	
9	0	0	0	0	504	513	
10	0	0	0	0	506	511	
11	0	0	0	0	504	511	
12	0	0	0	0	506	515	
13	0	0	0	0	506	511	
14	0	0	0	0	505	513	
15	0	0	0	0	506	513	
0	0	0	0	0	505	511	
1	0	0	0	0	506	512	
2	0	0	0	0	504	513	
3	0	0	0	0	507	512	
4	0	0	0	0	504	512	
5	0	0	0	0	505	512	
6	0	0	0	0	507	511	
7	0	0	0	0	505	511	
8	0	0	0	0	505	510	
9	0	0	0	0	506	512	
10	0	0	0	0	505	510	
11	0	0	0	0	505	512	
12	0	0	0	0	505	511	
13	0	0	0	0	504	511	
14	0	0	0	0	504	513	
15	0	0	0	0	504	511	
0	0	0	0	0	505	511	
1	0	0	0	0	505	511	
2	0	0	0	0	506	514	
3	0	0	0	0	504	512	
4	0	0	0	0	506	512	
5	0	0	0	0	506	512	
6	0	0	0	0	506	510	
7	0	0	0	0	504	513	
8	0	0	0	0	506	513	
9	0	0	0	0	505	511	
10	0	0	0	0	505	511	
11	0	0	0	0	506	511	
12	0	0	0	0	505	512	
13	0	0	0	0	507	511	
14	0	0	0	0	505	515	
15	0	0	0	0	504	511	
0	0	0	0	0	505	512	
1	0	0	0	0	506	513	
2	0	0	0	0	507	512	
3	0	0	0	0	506	511	
4	0	0	0	0	507	513	
5	0	0	0	0	506	511	
6	0	0	0	0	504	511	
7	0	0	0	0	504	513	
8	0	0	0	0	507	511	
9	0	0	0	0	506	511	
10	0	0	0	0	505	512	
11	0	0	0	0	507	509	
12	0	0	0	0	505	511	
13	0	0	0	0	504	511	
14	0	0	0	0	504	513	
15	0	0	0	0	505	511	
0	0	0	0	0	507	512	
1	0	0	0	0	507	512	
2	0	0	0	0	505	512	
3	0	0	0	0	503	512	
4	0	0	0	0	504	513	
5	0	0	0	0	506	514	
6	0	0	0	0	506	511	
7	0	0	0	0	505	512	
8	0	0	0	0	506	511	
9	0	0	0	0	505	512	
10	0	0	0	0	507	514	
11	0	0	0	0	504	513	
12	0	0	0	0	505	511	
13	0	0	0	0	505	513	
14	0	0	0	0	504	511	
15	0	0	0	0	506	511	
0	0	0	0	0	504	511	
1	0	0	0	0	506	511	
2	0	0	0	0	505	512	
3	0	0	0	0	505	512	
4	0	0	0	0	504	512	
5	0	0	0	0	505	512	
6	0	0	0	0	506	511	
7	0	0	0	0	507	511	
8	0	0	0	0	506	512	
9	0	0	0	0	505	513	
10	0	0	0	0	506	512	
11	0	0	0	0	504	513	
12	0	0	0	0	507	512	
13	0	0	0	0	505	512	
14	0	0	0	0	509	512	
15	0	0	0	0	506	514	
0	0	0	0	0	505	511	
1	0	0	0	0	505	512	
2	0	0	0	0	506	510	
3	0	0	0	0	506	511	
4	0	0	0	0	506	511	
5	0	0	0	0	505	512	
6	0	0	0	0	505	514	
7	0	0	0	0	504	511	
8	0	0	0	0	506	513	
9	0	0	0	0	506	513	
10	0	0	0	0	505	512	
11	0	0	0	0	506	512	
12	0	0	0	0	504	510	
13	0	0	0	0	505	513	
14	0	0	0	0	507	512	
15	0	0	0	0	504	512	
0	0	0	0	0	502	511	
1	0	0	0	0	505	512	
2	0	0	0	0	505	510	
3	0	0	0	0	505	512	
4	0	0	0	0	506	513	
5	0	0	0	0	506	512	
6	0	0	0	0	507	511	
7	0	0	0	0	504	511	
8	0	0	0	0	505	510	
9	0	0	0	0	505	512	
10	0	0	0	0	505	511	
11	0	0	0	0	506	512	
12	0	0	0	0	504	511	
13	0	0	0	0	506	511	
14	0	0	0	0	507	513	
15	0	0	0	0	507	512	
0	0	0	0	0	505	511	
1	0	0	0	0	505	512	
2	0	0	0	0	506	512	
3	0	0	0	0	505	514	
4	0	0	0	0	505	512	
5	0	0	0	0	505	513	
6	0	0	0	0	505	512	
7	0	0	0	0	506	515	
8	0	0	0	0	504	512	
9	0	0	0	0	506	515	
10	0	0	0	0	504	511	
11	0	0	0	0	505	511	
12	0	0	0	0	506	511	
13	0	0	0	0	506	511	
14	0	0	0	0	504	511	
15	0	0	0	0	505	510	
0	0	0	0	0	506	511	
1	0	0	0	0	507	511	
2	0	0	0	0	506	508	
3	0	0	0	0	507	511	
4	0	0	0	0	507	510	
5	0	0	0	0	507	513	
6	0	0	0	0	505	515	
7	0	0	0	0	507	512	
8	0	0	0	0	505	513	
9	0	0	0	0	504	511	
10	0	0	0	0	503	513	
11	0	0	0	0	507	511	
12	0	0	0	0	505	511	
13	0	0	0	0	505	511	
14	0	0	0	0	505	513	
15	0	0	0	0	507	511	
0	0	0	0	0	506	513	
1	0	0	0	0	505	513	
2	0	0	0	0	505	513	
3	0	0	0	0	506	511	
4	0	0	0	0	505	511	
5	0	0	0	0	504	512	
6	0	0	0	0	507	512	
7	0	0	0	0	505	512	
8	0	0	0	0	507	511	
9	0	0	0	0	507	512	
10	0	0	0	0	507	511	
11	0	0	0	0	506	513	
12	0	0	0	0	504	513	
13	0	0	0	0	504	510	
14	0	0	0	0	505	513	
15	0	0	0	0	505	512	
0	0	0	0	0	506	510	
1	0	0	0	0	505	511	
2	0	0	0	0	506	508	
3	0	0	0	0	505	510	
4	0	0	0	0	507	512	
5	0	0	0	0	505	511	
6	0	0	0	0	504	512	
7	0	0	0	0	503	512	
8	0	0	0	0	503	513	
9	0	0	0	0	504	513	
10	0	0	0	0	507	512	
11	0	0	0	0	508	510	
12	0	0	0	0	504	511	
13	0	0	0	0	504	513	
14	0	0	0	0	505	513	
15	0	0	0	0	504	512	
0	0	0	0	0	504	511	
1	0	0	0	0	504	512	
2	0	0	0	0	505	513	
3	0	0	0	0	505	512	
4	0	0	0	0	505	512	
5	0	0	0	0	507	511	
6	0	0	0	0	506	514	
7	0	0	0	0	505	511	
8	0	0	0	0	505	511	
9	0	0	0	0	505	510	
10	0	0	0	0	507	512	
11	0	0	0	0	507	512	
12	0	0	0	0	504	511	
13	0	0	0	0	506	513	
14	0	0	0	0	506	512	
15	0	0	0	0	504	511	
0	0	0	0	0	504	511	
1	0	0	0	0	507	511	
2	0	0	0	0	505	512	
3	0	0	0	0	506	513	
4	0	0	0	0	507	512	
5	0	0	0	0	503	511	
6	0	0	0	0	506	512	
7	0	0	0	0	503	512	
8	0	0	0	0	505	511	
9	0	0	0	0	505	512	
10	0	0	0	0	504	513	
11	0	0	0	0	504	512	
12	0	0	0	0	505	512	
13	0	0	0	0	504	512	
14	0	0	0	0	505	511	
15	0	0	0	0	504	512	
0	0	0	0	0	504	512	
1	0	0	0	0	506	511	
2	0	0	0	0	505	512	
3	0	0	0	0	507	510	
4	0	0	0	0	504	510	
5	0	0	0	0	506	509	
6	0	0	0	0	505	511	
7	0	0	0	0	507	511	
8	0	0	0	0	506	512	
9	0	0	0	0	506	513	
10	0	0	0	0	505	515	
11	0	0	0	0	505	513	
12	0	0	0	0	505	512	
13	0	0	0	0	508	512	
14	0	0	0	0	504	510	
15	0	0	0	0	505	512	
0	0	0	0	0	506	510	
1	0	0	0	0	507	511	
2	0	0	0	0	505	513	
3	0	0	0	0	505	513	
4	0	0	0	0	505	512	
5	0	0	0	0	507	514	
6	0	0	0	0	505	512	
7	0	0	0	0	506	510	
8	0	0	0	0	507	515	
9	0	0	0	0	506	512	
10	0	0	0	0	507	512	
11	0	0	0	0	504	512	
12	0	0	0	0	504	511	
13	0	0	0	0	505	512	
14	0	0	0	0	504	511	
15	0	0	0	0	505	513	
0	0	0	0	0	505	511	
1	0	0	0	0	506	512	
2	0	0	0	0	507	511	
3	0	0	0	0	505	511	
4	0	0	0	0	505	514	
5	0	0	0	0	505	512	
6	0	0	0	0	503	510	
7	0	0	0	0	506	511	
8	0	0	0	0	504	512	
9	0	0	0	0	505	513	
10	0	0	0	0	504	511	
11	0	0	0	0	505	512	
12	0	0	0	0	505	513	
13	0	0	0	0	505	511	
14	0	0	0	0	506	512	
15	0	0	0	0	506	512	
0	0	0	0	0	504	512	
1	0	0	0	0	506	510	
2	0	0	0	0	507	511	
3	0	0	0	0	505	511	
4	0	0	0	0	506	513	
5	0	0	0	0	505	512	
6	0	0	0	0	505	512	
7	0	0	0	0	507	511	
8	0	0	0	0	506	511	
9	0	0	0	0	505	511	
10	0	0	0	0	508	512	
11	0	0	0	0	505	514	
12	0	0	0	0	506	512	
13	0	0	0	0	502	513	
14	0	0	0	0	506	512	
15	0	0	0	0	504	512	
0	0	0	0	0	506	512	
1	0	0	0	0	505	514	
2	0	0	0	0	507	511	
3	0	0	0	0	504	511	
4	0	0	0	0	507	511	
5	0	0	0	0	504	510	
6	0	0	0	0	505	512	
7	0	0	0	0	505	513	
8	0	0	0	0	506	511	
9	0	0	0	0	507	510	
10	0	0	0	0	506	511	
11	0	0	0	0	504	513	
12	0	0	0	0	504	511	
13	0	0	0	0	505	512	
14	0	0	0	0	504	512	
15	0	0	0	0	505	512	
0	0	0	0	0	504	512	
1	0	0	0	0	505	513	
2	0	0	0	0	505	510	
3	0	0	0	0	508	511	
4	0	0	0	0	506	511	
5	0	0	0	0	505	514	
6	0	0	0	0	507	513	
7	0	0	0	0	507	512	
8	0	0	0	0	505	511	
9	0	0	0	0	504	513	
10	0	0	0	0	505	513	
11	0	0	0	0	507	512	
12	0	0	0	0	506	513	
13	0	0	0	0	504	510	
14	0	0	0	0	503	512	
15	0	0	0	0	504	512	
0	0	0	0	0	508	512	
1	0	0	0	0	506	511	
2	0	0	0	0	505	514	
3	0	0	0	0	505	511	
4	0	0	0	0	507	511	
5	0	0	0	0	505	511	
6	0	0	0	0	504	512	
7	0	0	0	0	506	512	
8	0	0	0	0	504	510	
9	0	0	0	0	505	512	
10	0	0	0	0	505	512	
11	0	0	0	0	505	512	
12	0	0	0	0	506	511	
13	0	0	0	0	505	511	
14	0	0	0	0	504	512	
15	0	0	0	0	503	512	
0	0	0	0	0	506	512	
1	0	0	0	0	505	511	
2	0	0	0	0	506	510	
3	0	0	0	0	505	511	
4	0	0	0	0	506	512	
5	0	0	0	0	506	511	
6	0	0	0	0	507	512	
7	0	0	0	0	505	511	
8	0	0	0	0	505	512	
9	0	0	0	0	506	512	
10	0	0	0	0	505	511	
11	0	0	0	0	505	512	
12	0	0	0	0	508	511	
13	0	0	0	0	505	512	
14	0	0	0	0	507	511	
15	0	0	0	0	505	511	
0	0	0	0	0	505	511	
1	0	0	0	0	504	513	
2	0	0	0	0	504	513	
3	0	0	0	0	507	513	
4	0	0	0	0	505	511	
5	0	0	0	0	506	510	
6	0	0	0	0	505	513	
7	0	0	0	0	505	512	
8	0	0	0	0	505	511	
9	0	0	0	0	504	510	
10	0	0	0	0	504	513	
11	0	0	0	0	505	511	
12	0	0	0	0	507	512	
13	0	0	0	0	505	513	
14	0	0	0	0	504	510	
15	0	0	0	0	506	513	
0	0	0	0	0	505	513	
1	0	0	0	0	504	510	
2	0	0	0	0	505	514	
3	0	0	0	0	504	512	
4	0	0	0	0	505	511	
5	0	0	0	0	506	511	
6	0	0	0	0	508	508	
7	0	0	0	0	504	511	
8	0	0	0	0	505	511	
9	0	0	0	0	505	514	
10	0	0	0	0	507	512	
11	0	0	0	0	505	513	
12	0	0	0	0	506	513	
13	0	0	0	0	505	510	
14	0	0	0	0	505	512	
15	0	0	0	0	504	512	
0	0	0	0	0	506	512	
1	0	0	0	0	504	512	
2	0	0	0	0	505	511	
3	0	0	0	0	505	512	
4	0	0	0	0	506	511	
5	0	0	0	0	505	514	
6	0	0	0	0	505	512	
7	0	0	0	0	503	511	
8	0	0	0	0	505	511	
9	0	0	0	0	504	511	
10	0	0	0	0	504	512	
11	0	0	0	0	507	512	
12	0	0	0	0	505	513	
13	0	0	0	0	507	513	
14	0	0	0	0	508	512	
15	0	0	0	0	506	511	
0	0	0	0	0	505	512	
1	0	0	0	0	507	511	
2	0	0	0	0	504	510	
3	0	0	0	0	505	513	
4	0	0	0	0	505	512	
5	0	0	0	0	504	512	
6	0	0	0	0	506	513	
7	0	0	0	0	507	511	
8	0	0	0	0	504	511	
9	0	0	0	0	505	510	
10	0	0	0	0	508	510	
11	0	0	0	0	504	512	
12	0	0	0	0	504	512	
13	0	0	0	0	506	513	
14	0	0	0	0	504	510	
15	0	0	0	0	504	512	
0	0	0	0	0	504	511	
1	0	0	0	0	504	514	
2	0	0	0	0	505	510	
3	0	0	0	0	508	512	
4	0	0	0	0	506	511	
5	0	0	0	0	507	509	
6	0	0	0	0	505	511	
7	0	0	0	0	504	511	
8	0	0	0	0	506	512	
9	0	0	0	0	507	510	
10	0	0	0	0	506	511	
11	0	0	0	0	505	513	
12	0	0	0	0	504	512	
13	0	0	0	0	507	513	
14	0	0	0	0	502	513	
15	0	0	0	0	506	512	
0	0	0	0	0	504	512	
1	0	0	0	0	504	516	
2	0	0	0	0	506	510	
3	0	0	0	0	505	511	
4	0	0	0	0	506	511	
5	0	0	0	0	506	511	
6	0	0	0	0	504	512	
7	0	0	0	0	506	511	
8	0	0	0	0	507	511	
9	0	0	0	0	507	511	
10	0	0	0	0	505	512	
11	0	0	0	0	505	512	
12	0	0	0	0	504	512	
13	0	0	0	0	505	511	
14	0	0	0	0	504	512	
15	0	0	0	0	505	512	
0	0	0	0	0	505	510	
1	0	0	0	0	504	511	
2	0	0	0	0	506	512	
3	0	0	0	0	505	512	
4	0	0	0	0	505	512	
5	0	0	0	0	505	511	
6	0	0	0	0	506	513	
7	0	0	0	0	504	512	
8	0	0	0	0	506	510	
9	0	0	0	0	507	513	
10	0	0	0	0	505	513	
11	0	0	0	0	504	512	
12	0	0	0	0	505	512	
13	0	0	0	0	504	511	
14	0	0	0	0	504	510	
15	0	0	0	0	507	512	
0	0	0	0	0	507	512	
1	0	0	0	0	507	512	
2	0	0	0	0	506	511	
3	0	0	0	0	508	512	
4	0	0	0	0	505	510	
5	0	0	0	0	504	512	
6	0	0	0	0	507	513	
7	0	0	0	0	504	513	
8	0	0	0	0	504	512	
9	0	0	0	0	504	511	
10	0	0	0	0	505	510	
11	0	0	0	0	506	512	
12	0	0	0	0	504	512	
13	0	0	0	0	504	512	
14	0	0	0	0	507	513	
15	0	0	0	0	507	511	
0	0	0	0	0	504	513	
1	0	0	0	0	508	511	
2	0	0	0	0	506	512	
3	0	0	0	0	507	512	
4	0	0	0	0	507	511	
5	0	0	0	0	506	510	
6	0	0	0	0	506	513	
7	0	0	0	0	506	512	
8	0	0	0	0	504	511	
9	0	0	0	0	505	512	
10	0	0	0	0	504	513	
11	0	0	0	0	505	511	
12	0	0	0	0	505	511	
13	0	0	0	0	502	512	
14	0	0	0	0	504	513	
15	0	0	0	0	505	513	
0	0	0	0	0	504	507	
1	0	0	0	0	504	512	
2	0	0	0	0	507	511	
3	0	0	0	0	505	511	
4	0	0	0	0	505	511	
5	0	0	0	0	504	511	
6	0	0	0	0	504	512	
7	0	0	0	0	505	512	
8	0	0	0	0	508	515	
9	0	0	0	0	504	511	
10	0	0	0	0	505	513	
11	0	0	0	0	504	512	
12	0	0	0	0	506	513	
13	0	0	0	0	506	511	
14	0	0	0	0	507	511	
15	0	0	0	0	507	512	
0	0	0	0	0	507	513	
1	0	0	0	0	507	510	
2	0	0	0	0	506	511	
3	0	0	0	0	506	511	
4	0	0	0	0	504	512	
5	0	0	0	0	506	513	
6	0	0	0	0	506	511	
7	0	0	0	0	505	512	
8	0	0	0	0	505	510	
9	0	0	0	0	504	512	
10	0	0	0	0	504	512	
11	0	0	0	0	502	512	
12	0	0	0	0	503	512	
13	0	0	0	0	506	512	
14	0	0	0	0	504	511	
15	0	0	0	0	505	512	
0	0	0	0	0	508	512	
1	0	0	0	0	506	511	
2	0	0	0	0	507	512	
3	0	0	0	0	505	512	
4	0	0	0	0	506	512	
5	0	0	0	0	504	512	
6	0	0	0	0	506	512	
7	0	0	0	0	505	512	
8	0	0	0	0	505	514	
9	0	0	0	0	507	511	
10	0	0	0	0	507	511	
11	0	0	0	0	505	511	
12	0	0	0	0	504	513	
13	0	0	0	0	504	513	
14	0	0	0	0	504	512	
15	0	0	0	0	503	512	
0	0	0	0	0	504	512	
1	0	0	0	0	504	510	
2	0	0	0	0	504	512	
3	0	0	0	0	505	512	
4	0	0	0	0	507	509	
5	0	0	0	0	507	510	
6	0	0	0	0	505	512	
7	0	0	0	0	505	510	
8	0	0	0	0	504	513	
9	0	0	0	0	506	511	
10	0	0	0	0	507	514	
11	0	0	0	0	506	513	
12	0	0	0	0	505	514	
13	0	0	0	0	507	512	
14	0	0	0	0	507	513	
15	0	0	0	0	506	512	
0	0	0	0	0	504	510	
1	0	0	0	0	506	511	
2	0	0	0	0	504	512	
3	0	0	0	0	505	510	
4	0	0	0	0	504	512	
5	0	0	0	0	506	512	
6	0	0	0	0	502	511	
7	0	0	0	0	505	510	
8	0	0	0	0	505	511	
9	0	0	0	0	507	512	
10	0	0	0	0	506	513	
11	0	0	0	0	505	512	
12	0	0	0	0	505	511	
13	0	0	0	0	505	513	
14	0	0	0	0	507	512	
15	0	0	0	0	507	513	
0	0	0	0	0	505	512	
1	0	0	0	0	503	512	
2	0	0	0	0	503	513	
3	0	0	0	0	504	512	
4	0	0	0	0	506	511	
5	0	0	0	0	505	512	
6	0	0	0	0	507	511	
7	0	0	0	0	504	512	
8	0	0	0	0	508	510	
9	0	0	0	0	508	510	
10	0	0	0	0	504	511	
11	0	0	0	0	504	512	
12	0	0	0	0	508	514	
13	0	0	0	0	507	512	
14	0	0	0	0	506	510	
15	0	0	0	0	504	510	
0	0	0	0	0	505	511	
1	0	0	0	0	506	513	
2	0	0	0	0	504	511	
3	0	0	0	0	505	512	
4	0	0	0	0	505	512	
5	0	0	0	0	504	512	
6	0	0	0	0	506	513	
7	0	0	0	0	503	512	
8	0	0	0	0	506	512	
9	0	0	0	0	506	512	
10	0	0	0	0	505	514	
11	0	0	0	0	506	512	
12	0	0	0	0	504	511	
13	0	0	0	0	507	513	
14	0	0	0	0	504	510	
15	0	0	0	0	504	514	
0	0	0	0	0	507	511	
1	0	0	0	0	505	510	
2	0	0	0	0	509	513	
3	0	0	0	0	505	512	
4	0	0	0	0	505	511	
5	0	0	0	0	505	511	
6	0	0	0	0	505	510	
7	0	0	0	0	504	513	
8	0	0	0	0	506	511	
9	0	0	0	0	505	512	
10	0	0	0	0	507	512	
11	0	0	0	0	505	512	
12	0	0	0	0	505	512	
13	0	0	0	0	504	510	
14	0	0	0	0	504	511	
15	0	0	0	0	505	511	
0	0	0	0	0	504	511	
1	0	0	0	0	503	510	
2	0	0	0	0	505	512	
3	0	0	0	0	505	515	
4	0	0	0	0	505	512	
5	0	0	0	0	505	511	
6	0	0	0	0	505	512	
7	0	0	0	0	504	512	
8	0	0	0	0	503	513	
9	0	0	0	0	505	511	
10	0	0	0	0	506	512	
11	0	0	0	0	508	512	
12	0	0	0	0	505	511	
13	0	0	0	0	505	513	
14	0	0	0	0	505	513	
15	0	0	0	0	505	511	
0	0	0	0	0	506	510	
1	0	0	0	0	507	511	
2	0	0	0	0	507	511	
3	0	0	0	0	504	513	
4	0	0	0	0	503	511	
5	0	0	0	0	507	511	
6	0	0	0	0	505	512	
7	0	0	0	0	505	514	
8	0	0	0	0	505	510	
9	0	0	0	0	504	510	
10	0	0	0	0	506	512	
11	0	0	0	0	504	511	
12	0	0	0	0	506	512	
13	0	0	0	0	507	513	
14	0	0	0	0	504	513	
15	0	0	0	0	506	512	
0	0	0	0	0	506	513	
1	0	0	0	0	505	512	
2	0	0	0	0	505	511	
3	0	0	0	0	504	510	
4	0	0	0	0	506	512	
5	0	0	0	0	505	512	
6	0	0	0	0	506	512	
7	0	0	0	0	504	511	
8	0	0	0	0	505	512	
9	0	0	0	0	505	513	
10	0	0	0	0	505	511	
11	0	0	0	0	505	511	
12	0	0	0	0	508	512	
13	0	0	0	0	507	510	
14	0	0	0	0	506	512	
15	0	0	0	0	505	512	
0	0	0	0	0	506	512	
1	0	0	0	0	506	511	
2	0	0	0	0	504	512	
3	0	0	0	0	506	513	
4	0	0	0	0	505	513	
5	0	0	0	0	507	512	
6	0	0	0	0	506	513	
7	0	0	0	0	506	512	
8	0	0	0	0	506	513	
9	0	0	0	0	504	514	
10	0	0	0	0	505	513	
11	0	0	0	0	505	510	
12	0	0	0	0	507	511	
13	0	0	0	0	504	511	
14	0	0	0	0	505	512	
15	0	0	0	0	505	512	
0	0	0	0	0	505	511	
1	0	0	0	0	507	512	
2	0	0	0	0	507	513	
3	0	0	0	0	504	511	
4	0	0	0	0	507	511	
5	0	0	0	0	505	512	
6	0	0	0	0	504	512	
7	0	0	0	0	505	515	
8	0	0	0	0	504	511	
9	0	0	0	0	505	513	
10	0	0	0	0	505	512	
11	0	0	0	0	504	512	
12	0	0	0	0	505	510	
13	0	0	0	0	505	511	
14	0	0	0	0	505	512	
15	0	0	0	0	505	512	
0	0	0	0	0	506	513	
1	0	0	0	0	505	512	
2	0	0	0	0	505	512	
3	0	0	0	0	506	511	
4	0	0	0	0	508	513	
5	0	0	0	0	505	512	
6	0	0	0	0	505	512	
7	0	0	0	0	507	510	
8	0	0	0	0	505	513	
9	0	0	0	0	506	512	
10	0	0	0	0	505	510	
11	0	0	0	0	506	511	
12	0	0	0	0	507	511	
13	0	0	0	0	504	510	
14	0	0	0	0	504	511	
15	0	0	0	0	504	512	
0	0	0	0	0	505	511	
1	0	0	0	0	506	511	
2	0	0	0	0	507	513	
3	0	0	0	0	505	511	
4	0	0	0	0	507	514	
5	0	0	0	0	505	511	
6	0	0	0	0	506	514	
7	0	0	0	0	504	513	
8	0	0	0	0	507	513	
9	0	0	0	0	503	511	
10	0	0	0	0	505	514	
11	0	0	0	0	505	512	
12	0	0	0	0	504	512	
13	0	0	0	0	505	512	
14	0	0	0	0	505	512	
15	0	0	0	0	504	513	
0	0	0	0	0	504	511	
1	0	0	0	0	505	512	
2	0	0	0	0	507	510	
3	0	0	0	0	503	512	
4	0	0	0	0	504	512	
5	0	0	0	0	505	512	
6	0	0	0	0	505	510	
7	0	0	0	0	505	510	
8	0	0	0	0	505	512	
9	0	0	0	0	506	512	
10	0	0	0	0	507	512	
11	0	0	0	0	507	511	
12	0	0	0	0	507	510	
13	0	0	0	0	505	512	
14	0	0	0	0	505	513	
15	0	0	0	0	505	511	
0	0	0	0	0	507	512	
1	0	0	0	0	506	511	
2	0	0	0	0	504	510	
3	0	0	0	0	504	513	
4	0	0	0	0	504	510	
5	0	0	0	0	505	512	
6	0	0	0	0	505	513	
7	0	0	0	0	506	512	
8	0	0	0	0	505	513	
9	0	0	0	0	505	515	
10	0	0	0	0	505	513	
11	0	0	0	0	505	511	
12	0	0	0	0	505	512	
13	0	0	0	0	507	512	
14	0	0	0	0	506	514	
15	0	0	0	0	506	513	
0	0	0	0	0	505	512	
1	0	0	0	0	505	513	
2	0	0	0	0	505	514	
3	0	0	0	0	505	515	
4	0	0	0	0	505	512	
5	0	0	0	0	506	512	
6	0	0	0	0	504	512	
7	0	0	0	0	504	512	
8	0	0	0	0	506	510	
9	0	0	0	0	503	513	
10	0	0	0	0	504	512	
11	0	0	0	0	504	510	
12	0	0	0	0	507	511	
13	0	0	0	0	504	511	
14	0	0	0	0	508	512	
15	0	0	0	0	507	511	
0	0	0	0	0	505	511	
1	0	0	0	0	505	510	
2	0	0	0	0	505	511	
3	0	0	0	0	508	512	
4	0	0	0	0	505	512	
5	0	0	0	0	508	512	
6	0	0	0	0	505	511	
7	0	0	0	0	504	512	
8	0	0	0	0	505	513	
9	0	0	0	0	506	513	
10	0	0	0	0	505	512	
11	0	0	0	0	504	513	
12	0	0	0	0	504	512	
13	0	0	0	0	505	511	
14	0	0	0	0	505	512	
15	0	0	0	0	505	510	
0	0	0	0	0	506	513	
1	0	0	0	0	505	512	
2	0	0	0	0	503	509	
3	0	0	0	0	505	510	
4	0	0	0	0	507	511	
5	0	0	0	0	506	511	
6	0	0	0	0	507	513	
7	0	0	0	0	505	513	
8	0	0	0	0	505	513	
9	0	0	0	0	504	511	
10	0	0	0	0	506	511	
11	0	0	0	0	505	513	
12	0	0	0	0	505	512	
13	0	0	0	0	504	512	
14	0	0	0	0	504	515	
15	0	0	0	0	506	514	
0	0	0	0	0	505	511	
1	0	0	0	0	505	510	
2	0	0	0	0	505	511	
3	0	0	0	0	504	511	
4	0	0	0	0	506	512	
5	0	0	0	0	507	511	
6	0	0	0	0	507	512	
7	0	0	0	0	505	513	
8	0	0	0	0	505	513	
9	0	0	0	0	504	514	
10	0	0	0	0	504	514	
11	0	0	0	0	504	514	
12	0	0	0	0	504	510	
13	0	0	0	0	506	510	
14	0	0	0	0	507	511	
15	0	0	0	0	506	511	
0	0	0	0	0	504	511	
1	0	0	0	0	505	511	
2	0	0	0	0	505	512	
3	0	0	0	0	506	513	
4	0	0	0	0	505	512	
5	0	0	0	0	506	515	
6	0	0	0	0	504	510	
7	0	0	0	0	504	510	
8	0	0	0	0	507	510	
9	0	0	0	0	504	508	
10	0	0	0	0	506	512	
11	0	0	0	0	507	510	
12	0	0	0	0	505	513	
13	0	0	0	0	507	513	
14	0	0	0	0	504	513	
15	0	0	0	0	503	512	
0	0	0	0	0	505	513	
1	0	0	0	0	507	510	
2	0	0	0	0	503	511	
3	0	0	0	0	505	512	
4	0	0	0	0	505	511	
5	0	0	0	0	507	512	
6	0	0	0	0	507	511	
7	0	0	0	0	507	512	
8	0	0	0	0	504	511	
9	0	0	0	0	503	515	
10	0	0	0	0	504	514	
11	0	0	0	0	506	510	
12	0	0	0	0	507	511	
13	0	0	0	0	504	511	
14	0	0	0	0	505	512	
15	0	0	0	0	507	513	
0	0	0	0	0	506	511	
1	0	0	0	0	506	512	
2	0	0	0	0	505	510	
3	0	0	0	0	507	513	
4	0	0	0	0	507	511	
5	0	0	0	0	506	511	
6	0	0	0	0	506	512	
7	0	0	0	0	504	512	
8	0	0	0	0	505	512	
9	0	0	0	0	505	513	
10	0	0	0	0	505	512	
11	0	0	0	0	506	513	
12	0	0	0	0	507	512	
13	0	0	0	0	503	511	
14	0	0	0	0	504	512	
15	0	0	0	0	506	511	
0	0	0	0	0	505	513	
1	0	0	0	0	506	512	
2	0	0	0	0	505	511	
3	0	0	0	0	503	510	
4	0	0	0	0	506	510	
5	0	0	0	0	505	510	
6	0	0	0	0	507	512	
7	0	0	0	0	507	511	
8	0	0	0	0	504	514	
9	0	0	0	0	505	511	
10	0	0	0	0	505	513	
11	0	0	0	0	505	511	
12	0	0	0	0	504	512	
13	0	0	0	0	505	512	
14	0	0	0	0	507	512	
15	0	0	0	0	504	513	
0	0	0	0	0	505	511	
1	0	0	0	0	505	511	
2	0	0	0	0	504	512	
3	0	0	0	0	507	512	
4	0	0	0	0	505	511	
5	0	0	0	0	505	512	
6	0	0	0	0	505	510	
7	0	0	0	0	505	512	
8	0	0	0	0	505	512	
9	0	0	0	0	507	512	
10	0	0	0	0	506	513	
11	0	0	0	0	505	512	
12	0	0	0	0	508	510	
13	0	0	0	0	505	513	
14	0	0	0	0	504	512	
15	0	0	0	0	505	512	
0	0	0	0	0	505	513	
1	0	0	0	0	504	510	
2	0	0	0	0	508	513	
3	0	0	0	0	505	511	
4	0	0	0	0	505	512	
5	0	0	0	0	505	511	
6	0	0	0	0	504	512	
7	0	0	0	0	504	511	
8	0	0	0	0	505	511	
9	0	0	0	0	506	512	
10	0	0	0	0	506	512	
11	0	0	0	0	504	512	
12	0	0	0	0	506	511	
13	0	0	0	0	505	512	
14	0	0	0	0	505	510	
15	0	0	0	0	505	511	
0	0	0	0	0	504	512	
1	0	0	0	0	505	513	
2	0	0	0	0	507	512	
3	0	0	0	0	505	511	
4	0	0	0	0	505	512	
5	0	0	0	0	507	512	
6	0	0	0	0	504	514	
7	0	0	0	0	504	513	
8	0	0	0	0	504	514	
9	0	0	0	0	505	511	
10	0	0	0	0	505	508	
11	0	0	0	0	507	512	
12	0	0	0	0	504	513	
13	0	0	0	0	504	511	
14	0	0	0	0	506	510	
15	0	0	0	0	506	511	
0	0	0	0	0	506	514	
1	0	0	0	0	507	515	
2	0	0	0	0	505	511	
3	0	0	0	0	504	509	
4	0	0	0	0	505	510	
5	0	0	0	0	505	511	
6	0	0	0	0	505	513	
7	0	0	0	0	506	513	
8	0	0	0	0	505	512	
9	0	0	0	0	507	512	
10	0	0	0	0	505	513	
11	0	0	0	0	505	513	
12	0	0	0	0	508	512	
13	0	0	0	0	507	512	
14	0	0	0	0	505	513	
15	0	0	0	0	507	513	
0	0	0	0	0	505	512	
1	0	0	0	0	504	509	
2	0	0	0	0	504	508	
3	0	0	0	0	506	511	
4	0	0	0	0	505	512	
5	0	0	0	0	504	512	
6	0	0	0	0	504	512	
7	0	0	0	0	506	511	
8	0	0	0	0	505	511	
9	0	0	0	0	508	510	
10	0	0	0	0	505	513	
11	0	0	0	0	505	511	
12	0	0	0	0	506	510	
13	0	0	0	0	506	511	
14	0	0	0	0	505	510	
15	0	0	0	0	505	511	
0	0	0	0	0	504	511	
1	0	0	0	0	505	512	
2	0	0	0	0	506	512	
3	0	0	0	0	505	511	
4	0	0	0	0	506	513	
5	0	0	0	0	507	513	
6	0	0	0	0	505	512	
7	0	0	0	0	504	512	
8	0	0	0	0	505	512	
9	0	0	0	0	504	512	
10	0	0	0	0	505	512	
11	0	0	0	0	505	511	
12	0	0	0	0	506	511	
13	0	0	0	0	505	511	
14	0	0	0	0	505	512	
15	0	0	0	0	504	512	
0	0	0	0	0	506	513	
1	0	0	0	0	505	513	
2	0	0	0	0	504	511	
3	0	0	0	0	505	514	
4	0	0	0	0	504	512	
5	0	0	0	0	504	512	
6	0	0	0	0	507	510	
7	0	0	0	0	506	513	
8	0	0	0	0	505	512	
9	0	0	0	0	506	512	
10	0	0	0	0	505	513	
11	0	0	0	0	507	513	
12	0	0	0	0	508	513	
13	0	0	0	0	505	512	
14	0	0	0	0	505	510	
15	0	0	0	0	504	513	
0	0	0	0	0	505	512	
1	0	0	0	0	504	510	
2	0	0	0	0	506	511	
3	0	0	0	0	505	514	
4	0	0	0	0	506	511	
5	0	0	0	0	505	511	
6	0	0	0	0	507	510	
7	0	0	0	0	506	512	
8	0	0	0	0	503	511	
9	0	0	0	0	504	512	
10	0	0	0	0	505	512	
11	0	0	0	0	506	513	
12	0	0	0	0	503	511	
13	0	0	0	0	506	511	
14	0	0	0	0	505	510	
15	0	0	0	0	504	512	
0	0	0	0	0	506	512	
1	0	0	0	0	508	513	
2	0	0	0	0	507	512	
3	0	0	0	0	504	512	
4	0	0	0	0	505	511	
5	0	0	0	0	506	511	
6	0	0	0	0	505	511	
7	0	0	0	0	505	510	
8	0	0	0	0	506	513	
9	0	0	0	0	505	513	
10	0	0	0	0	506	510	
11	0	0	0	0	504	513	
12	0	0	0	0	504	511	
13	0	0	0	0	504	511	
14	0	0	0	0	506	512	
15	0	0	0	0	505	513	
0	0	0	0	0	507	512	
1	0	0	0	0	506	509	
2	0	0	0	0	504	512	
3	0	0	0	0	504	511	
4	0	0	0	0	506	510	
5	0	0	0	0	507	512	
6	0	0	0	0	506	512	
7	0	0	0	0	505	513	
8	0	0	0	0	504	510	
9	0	0	0	0	506	510	
10	0	0	0	0	504	511	
11	0	0	0	0	505	510	
12	0	0	0	0	507	511	
13	0	0	0	0	503	511	
14	0	0	0	0	506	511	
15	0	0	0	0	505	513	
0	0	0	0	0	505	512	
1	0	0	0	0	504	510	
2	0	0	0	0	505	511	
3	0	0	0	0	506	512	
4	0	0	0	0	507	510	
5	0	0	0	0	507	513	
6	0	0	0	0	504	512	
7	0	0	0	0	506	510	
8	0	0	0	0	506	513	
9	0	0	0	0	505	512	
10	0	0	0	0	505	511	
11	0	0	0	0	505	512	
12	0	0	0	0	504	513	
13	0	0	0	0	505	514	
14	0	0	0	0	505	511	
15	0	0	0	0	504	512	
0	0	0	0	0	505	512	
1	0	0	0	0	505	512	
2	0	0	0	0	507	512	
3	0	0	0	0	506	512	
4	0	0	0	0	504	513	
5	0	0	0	0	508	513	
6	0	0	0	0	504	512	
7	0	0	0	0	505	511	
8	0	0	0	0	505	512	
9	0	0	0	0	507	510	
10	0	0	0	0	507	510	
11	0	0	0	0	503	512	
12	0	0	0	0	505	511	
13	0	0	0	0	507	510	
14	0	0	0	0	504	512	
15	0	0	0	0	507	512	
0	0	0	0	0	504	512	
1	0	0	0	0	506	513	
2	0	0	0	0	506	513	
3	0	0	0	0	504	513	
4	0	0	0	0	504	511	
5	0	0	0	0	506	511	
6	0	0	0	0	505	512	
7	0	0	0	0	506	510	
8	0	0	0	0	504	512	
9	0	0	0	0	505	512	
10	0	0	0	0	505	513	
11	0	0	0	0	506	513	
12	0	0	0	0	505	511	
13	0	0	0	0	504	511	
14	0	0	0	0	505	511	
15	0	0	0	0	507	512	
0	0	0	0	0	504	511	
1	0	0	0	0	507	512	
2	0	0	0	0	507	512	
3	0	0	0	0	505	511	
4	0	0	0	0	503	513	
5	0	0	0	0	504	510	
6	0	0	0	0	504	512	
7	0	0	0	0	507	513	
8	0	0	0	0	507	514	
9	0	0	0	0	505	512	
10	0	0	0	0	506	513	
11	0	0	0	0	506	513	
12	0	0	0	0	505	510	
13	0	0	0	0	504	510	
14	0	0	0	0	507	510	
15	0	0	0	0	505	509	
0	0	0	0	0	507	509	
1	0	0	0	0	508	511	
2	0	0	0	0	506	511	
3	0	0	0	0	505	510	
4	0	0	0	0	507	513	
5	0	0	0	0	504	513	
6	0	0	0	0	503	514	
7	0	0	0	0	504	513	
8	0	0	0	0	504	513	
9	0	0	0	0	504	511	
10	0	0	0	0	504	513	
11	0	0	0	0	504	511	
12	0	0	0	0	504	510	
13	0	0	0	0	506	513	
14	0	0	0	0	506	512	
15	0	0	0	0	507	512	
0	0	0	0	0	506	512	
1	0	0	0	0	505	512	
2	0	0	0	0	508	512	
3	0	0	0	0	505	511	
4	0	0	0	0	507	511	
5	0	0	0	0	506	512	
6	0	0	0	0	505	512	
7	0	0	0	0	504	511	
8	0	0	0	0	506	513	
9	0	0	0	0	505	511	
10	0	0	0	0	506	511	
11	0	0	0	0	507	511	
12	0	0	0	0	505	511	
13	0	0	0	0	506	512	
14	0	0	0	0	507	512	
15	0	0	0	0	505	512	
0	0	0	0	0	505	512	
1	0	0	0	0	505	512	
2	0	0	0	0	507	512	
3	0	0	0	0	505	513	
4	0	0	0	0	505	512	
5	0	0	0	0	505	510	
6	0	0	0	0	505	513	
7	0	0	0	0	507	512	
8	0	0	0	0	506	512	
9	0	0	0	0	507	511	
10	0	0	0	0	506	510	
11	0	0	0	0	504	511	
12	0	0	0	0	505	512	
13	0	0	0	0	505	513	
14	0	0	0	0	504	514	
15	0	0	0	0	504	511	
0	0	0	0	0	506	511	
1	0	0	0	0	506	512	
2	0	0	0	0	504	511	
3	0	0	0	0	503	511	
4	0	0	0	0	504	513	
5	0	0	0	0	505	510	
6	0	0	0	0	506	513	
7	0	0	0	0	505	512	
8	0	0	0	0	504	513	
9	0	0	0	0	505	513	
10	0	0	0	0	508	512	
11	0	0	0	0	504	512	
12	0	0	0	0	505	513	
13	0	0	0	0	506	511	
14	0	0	0	0	507	512	
15	0	0	0	0	505	511	
0	0	0	0	0	507	513	
1	0	0	0	0	505	512	
2	0	0	0	0	504	511	
3	0	0	0	0	508	511	
4	0	0	0	0	504	511	
5	0	0	0	0	504	510	
6	0	0	0	0	505	512	
7	0	0	0	0	504	511	
8	0	0	0	0	507	513	
9	0	0	0	0	505	512	
10	0	0	0	0	505	511	
11	0	0	0	0	506	513	
12	0	0	0	0	506	513	
13	0	0	0	0	506	512	
14	0	0	0	0	505	512	
15	0	0	0	0	505	512	
0	0	0	0	0	506	512	
1	0	0	0	0	506	510	
2	0	0	0	0	508	511	
3	0	0	0	0	504	511	
4	0	0	0	0	504	510	
5	0	0	0	0	505	512	
6	0	0	0	0	505	509	
7	0	0	0	0	505	513	
8	0	0	0	0	504	513	
9	0	0	0	0	505	510	
10	0	0	0	0	506	511	
11	0	0	0	0	505	510	
12	0	0	0	0	505	511	
13	0	0	0	0	507	512	
14	0	0	0	0	505	511	
15	0	0	0	0	504	510	
0	0	0	0	0	504	512	
1	0	0	0	0	505	510	
2	0	0	0	0	505	513	
3	0	0	0	0	504	513	
4	0	0	0	0	504	513	
5	0	0	0	0	505	511	
6	0	0	0	0	505	511	
7	0	0	0	0	507	512	
8	0	0	0	0	508	514	
9	0	0	0	0	505	513	
10	0	0	0	0	504	511	
11	0	0	0	0	504	513	
12	0	0	0	0	506	512	
13	0	0	0	0	505	512	
14	0	0	0	0	505	511	
15	0	0	0	0	505	511	
0	0	0	0	0	504	512	
1	0	0	0	0	508	512	
2	0	0	0	0	505	511	
3	0	0	0	0	504	510	
4	0	0	0	0	507	510	
5	0	0	0	0	508	510	
6	0	0	0	0	506	512	
7	0	0	0	0	505	514	
8	0	0	0	0	506	513	
9	0	0	0	0	506	511	
10	0	0	0	0	505	513	
11	0	0	0	0	505	512	
12	0	0	0	0	504	512	
13	0	0	0	0	506	512	
14	0	0	0	0	504	511	
15	0	0	0	0	505	512	
0	0	0	0	0	507	511	
1	0	0	0	0	505	512	
2	0	0	0	0	505	513	
3	0	0	0	0	505	510	
4	0	0	0	0	504	512	
5	0	0	0	0	506	512	
6	0	0	0	0	505	512	
7	0	0	0	0	505	511	
8	0	0	0	0	504	511	
9	0	0	0	0	504	512	
10	0	0	0	0	506	514	
11	0	0	0	0	505	511	
12	0	0	0	0	506	512	
13	0	0	0	0	505	511	
14	0	0	0	0	505	512	
15	0	0	0	0	505	510	
0	0	0	0	0	506	512	
1	0	0	0	0	506	513	
2	0	0	0	0	504	512	
3	0	0	0	0	505	510	
4	0	0	0	0	506	511	
5	0	0	0	0	504	511	
6	0	0	0	0	504	511	
7	0	0	0	0	504	511	
8	0	0	0	0	507	513	
9	0	0	0	0	507	510	
10	0	0	0	0	505	514	
11	0	0	0	0	506	512	
12	0	0	0	0	506	511	
13	0	0	0	0	505	513	
14	0	0	0	0	504	512	
15	0	0	0	0	505	511	
0	0	0	0	0	504	513	
1	0	0	0	0	505	510	
2	0	0	0	0	505	511	
3	0	0	0	0	508	512	
4	0	0	0	0	505	512	
5	0	0	0	0	504	511	
6	0	0	0	0	502	510	
7	0	0	0	0	506	512	
8	0	0	0	0	506	512	
9	0	0	0	0	505	511	
10	0	0	0	0	505	512	
11	0	0	0	0	505	512	
12	0	0	0	0	505	511	
13	0	0	0	0	504	512	
14	0	0	0	0	506	512	
15	0	0	0	0	507	511	
0	0	0	0	0	505	512	
1	0	0	0	0	508	512	
2	0	0	0	0	505	512	
3	0	0	0	0	506	512	
4	0	0	0	0	504	513	
5	0	0	0	0	505	511	
6	0	0	0	0	504	511	
7	0	0	0	0	504	512	
8	0	0	0	0	504	512	
9	0	0	0	0	506	513	
10	0	0	0	0	504	512	
11	0	0	0	0	504	512	
12	0	0	0	0	505	511	
13	0	0	0	0	506	512	
14	0	0	0	0	507	513	
15	0	0	0	0	504	512	
0	0	0	0	0	505	510	
1	0	0	0	0	506	510	
2	0	0	0	0	503	513	
3	0	0	0	0	504	511	
4	0	0	0	0	505	512	
5	0	0	0	0	506	513	
6	0	0	0	0	504	512	
7	0	0	0	0	507	511	
8	0	0	0	0	504	512	
9	0	0	0	0	504	512	
10	0	0	0	0	504	513	
11	0	0	0	0	504	511	
12	0	0	0	0	505	512	
13	0	0	0	0	506	511	
14	0	0	0	0	505	512	
15	0	0	0	0	506	513	
0	0	0	0	0	507	511	
1	0	0	0	0	504	510	
2	0	0	0	0	505	512	
3	0	0	0	0	506	510	
4	0	0	0	0	505	512	
5	0	0	0	0	504	512	
6	0	0	0	0	507	513	
7	0	0	0	0	505	512	
8	0	0	0	0	507	510	
9	0	0	0	0	505	512	
10	0	0	0	0	506	511	
11	0	0	0	0	504	512	
12	0	0	0	0	507	511	
13	0	0	0	0	505	511	
14	0	0	0	0	508	512	
15	0	0	0	0	505	513	
0	0	0	0	0	505	513	
1	0	0	0	0	505	511	
2	0	0	0	0	505	511	
3	0	0	0	0	505	510	
4	0	0	0	0	505	511	
5	0	0	0	0	504	511	
6	0	0	0	0	506	512	
7	0	0	0	0	506	509	
8	0	0	0	0	505	511	
9	0	0	0	0	505	511	
10	0	0	0	0	506	512	
11	0	0	0	0	505	514	
12	0	0	0	0	505	513	
13	0	0	0	0	505	510	
14	0	0	0	0	505	513	
15	0	0	0	0	504	514	
0	0	0	0	0	506	512	
1	0	0	0	0	506	512	
2	0	0	0	0	506	514	
3	0	0	0	0	504	511	
4	0	0	0	0	505	511	
5	0	0	0	0	507	509	
6	0	0	0	0	505	511	
7	0	0	0	0	506	513	
8	0	0	0	0	506	513	
9	0	0	0	0	504	512	
10	0	0	0	0	505	511	
11	0	0	0	0	504	511	
12	0	0	0	0	504	512	
13	0	0	0	0	505	512	
14	0	0	0	0	505	513	
15	0	0	0	0	505	513	
0	0	0	0	0	505	512	
1	0	0	0	0	506	512	
2	0	0	0	0	504	512	
3	0	0	0	0	505	510	
4	0	0	0	0	506	512	
5	0	0	0	0	504	513	
6	0	0	0	0	507	512	
7	0	0	0	0	506	512	
8	0	0	0	0	507	510	
9	0	0	0	0	507	511	
10	0	0	0	0	506	514	
11	0	0	0	0	505	511	
12	0	0	0	0	504	511	
13	0	0	0	0	505	510	
14	0	0	0	0	504	512	
15	0	0	0	0	506	513	
0	0	0	0	0	506	511	
1	0	0	0	0	506	511	
2	0	0	0	0	507	513	
3	0	0	0	0	505	512	
4	0	0	0	0	504	511	
5	0	0	0	0	505	511	
6	0	0	0	0	505	511	
7	0	0	0	0	503	511	
8	0	0	0	0	507	512	
9	0	0	0	0	507	511	
10	0	0	0	0	507	510	
11	0	0	0	0	506	510	
12	0	0	0	0	506	510	
13	0	0	0	0	504	511	
14	0	0	0	0	504	511	
15	0	0	0	0	504	513	
0	0	0	0	0	506	512	
1	0	0	0	0	505	513	
2	0	0	0	0	507	511	
3	0	0	0	0	505	513	
4	0	0	0	0	508	512	
5	0	0	0	0	507	513	
6	0	0	0	0	507	512	
7	0	0	0	0	506	512	
8	0	0	0	0	504	513	
9	0	0	0	0	507	512	
10	0	0	0	0	505	508	
11	0	0	0	0	504	511	
12	0	0	0	0	505	513	
13	0	0	0	0	505	510	
14	0	0	0	0	504	513	
15	0	0	0	0	505	510	
0	0	0	0	0	505	512	
1	0	0	0	0	505	511	
2	0	0	0	0	506	512	
3	0	0	0	0	505	511	
4	0	0	0	0	505	511	
5	0	0	0	0	506	512	
6	0	0	0	0	506	513	
7	0	0	0	0	505	510	
8	0	0	0	0	505	511	
9	0	0	0	0	504	512	
10	0	0	0	0	507	512	
11	0	0	0	0	504	513	
12	0	0	0	0	504	513	
13	0	0	0	0	505	513	
14	0	0	0	0	508	512	
15	0	0	0	0	506	510	
0	0	0	0	0	505	512	
1	0	0	0	0	506	511	
2	0	0	0	0	505	513	
3	0	0	0	0	506	514	
4	0	0	0	0	505	512	
5	0	0	0	0	505	512	
6	0	0	0	0	504	509	
7	0	0	0	0	504	511	
8	0	0	0	0	505	513	
9	0	0	0	0	504	513	
10	0	0	0	0	505	513	
11	0	0	0	0	504	514	
12	0	0	0	0	506	512	
13	0	0	0	0	505	512	
14	0	0	0	0	506	510	
15	0	0	0	0	507	512	
0	0	0	0	0	504	511	
1	0	0	0	0	505	512	
2	0	0	0	0	507	512	
3	0	0	0	0	504	510	
4	0	0	0	0	508	512	
5	0	0	0	0	507	511	
6	0	0	0	0	504	512	
7	0	0	0	0	505	514	
8	0	0	0	0	505	512	
9	0	0	0	0	505	513	
10	0	0	0	0	505	513	
11	0	0	0	0	504	510	
12	0	0	0	0	504	512	
13	0	0	0	0	504	512	
14	0	0	0	0	505	512	
15	0	0	0	0	506	512	
0	0	0	0	0	505	510	
1	0	0	0	0	504	513	
2	0	0	0	0	504	512	
3	0	0	0	0	507	511	
4	0	0	0	0	507	512	
5	0	0	0	0	506	511	
6	0	0	0	0	504	514	
7	0	0	0	0	506	515	
8	0	0	0	0	503	513	
9	0	0	0	0	502	511	
10	0	0	0	0	504	511	
11	0	0	0	0	504	512	
12	0	0	0	0	504	511	
13	0	0	0	0	504	512	
14	0	0	0	0	505	512	
15	0	0	0	0	508	513	
0	0	0	0	0	508	511	
1	0	0	0	0	507	513	
2	0	0	0	0	505	515	
3	0	0	0	0	508	512	
4	0	0	0	0	507	511	
5	0	0	0	0	504	508	
6	0	0	0	0	505	511	
7	0	0	0	0	500	511	
8	0	0	0	0	503	512	
9	0	0	0	0	505	512	
10	0	0	0	0	506	511	
11	0	0	0	0	505	509	
12	0	0	0	0	505	511	
13	0	0	0	0	505	512	
14	0	0	0	0	503	511	
15	0	0	0	0	505	511	
0	0	0	0	0	508	511	
1	0	0	0	0	510	513	
2	0	0	0	0	507	513	
3	0	0	0	0	507	510	
4	0	0	0	0	507	513	
5	0	0	0	0	508	512	
6	0	0	0	0	508	512	
7	0	0	0	0	509	511	
8	0	0	0	0	509	513	
9	0	0	0	0	506	511	
10	0	0	0	0	504	512	
11	0	0	0	0	505	512	
12	0	0	0	0	503	511	
13	0	0	0	0	502	511	
14	0	0	0	0	503	510	
15	0	0	0	0	504	512	
0	0	0	0	0	507	512	
1	0	0	0	0	510	512	
2	0	0	0	0	511	511	
3	0	0	0	0	508	510	
4	0	0	0	0	507	512	
5	0	0	0	0	504	512	
6	0	0	0	0	502	512	
7	0	0	0	0	501	515	
8	0	0	0	0	504	512	
9	0	0	0	0	503	512	
10	0	0	0	0	504	513	
11	0	0	0	0	499	513	
12	0	0	0	0	499	513	
13	0	0	0	0	500	511	
14	0	0	0	0	503	511	
15	0	0	0	0	507	512	
0	0	0	0	0	504	511	
1	0	0	0	0	501	511	
2	0	0	0	0	504	513	
3	0	0	0	0	503	512	
4	0	0	0	0	505	511	
5	0	0	0	0	504	512	
6	0	0	0	0	507	511	
7	0	0	0	0	504	511	
8	0	0	0	0	507	512	
9	0	0	0	0	509	511	
10	0	0	0	0	510	512	
11	0	0	0	0	509	512	
12	0	0	0	0	508	512	
13	0	0	0	0	508	513	
14	0	0	0	0	509	511	
15	0	0	0	0	513	515	
0	0	0	0	0	513	513	
1	0	0	0	0	513	511	
2	0	0	0	0	505	510	
3	0	0	0	0	499	512	
4	0	0	0	0	497	511	
5	0	0	0	0	498	511	
6	0	0	0	0	496	512	
7	0	0	0	0	499	510	
8	0	0	0	0	502	511	
9	0	0	0	0	505	510	
10	0	0	0	0	510	511	
11	0	0	0	0	512	511	
12	0	0	0	0	512	512	
13	0	0	0	0	505	512	
14	0	0	0	0	504	512	
15	0	0	0	0	509	511	
0	0	0	0	0	508	511	
1	0	0	0	0	508	514	
2	0	0	0	0	510	513	
3	0	0	0	0	511	515	
4	0	0	0	0	510	514	
5	0	0	0	0	505	513	
6	0	0	0	0	501	511	
7	0	0	0	0	503	509	
8	0	0	0	0	501	511	
9	0	0	0	0	500	512	
10	0	0	0	0	500	510	
11	0	0	0	0	503	512	
12	0	0	0	0	502	511	
13	0	0	0	0	503	510	
14	0	0	0	0	506	512	
15	0	0	0	0	506	511	
0	0	0	0	0	508	513	
1	0	0	0	0	508	514	
2	0	0	0	0	505	512	
3	0	0	0	0	505	513	
4	0	0	0	0	504	511	
5	0	0	0	0	515	511	
6	0	0	0	0	519	515	
7	0	0	0	0	519	511	
8	0	0	0	0	517	511	
9	0	0	0	0	511	510	
10	0	0	0	0	503	514	
11	0	0	0	0	491	511	
12	0	0	0	0	482	511	
13	0	0	0	0	484	514	
14	0	0	0	0	486	512	
15	0	0	0	0	491	513	
0	0	0	0	0	489	512	
1	0	0	0	0	500	513	
2	0	0	0	0	507	512	
3	0	0	0	0	515	512	
4	0	0	0	0	516	512	
5	0	0	0	0	516	512	
6	0	0	0	0	513	512	
7	0	0	0	0	511	512	
8	0	0	0	0	508	512	
9	0	0	0	0	510	512	
10	0	0	0	0	508	513	
11	0	0	0	0	505	512	
12	0	0	0	0	510	513	
13	0	0	0	0	513	512	
14	0	0	0	0	515	513	
15	0	0	0	0	518	514	
0	0	0	0	0	511	513	
1	0	0	0	0	508	514	
2	0	0	0	0	503	511	
3	0	0	0	0	505	511	
4	0	0	0	0	504	511	
5	0	0	0	0	507	513	
6	0	0	0	0	505	511	
7	0	0	0	0	492	510	
8	0	0	0	0	490	510	
9	0	0	0	0	491	510	
10	0	0	0	0	495	510	
11	0	0	0	0	503	511	
12	0	0	0	0	506	509	
13	0	0	0	0	507	512	
14	0	0	0	0	505	512	
15	0	0	0	0	502	511	
0	0	0	0	0	507	511	
1	0	0	0	0	511	511	
2	0	0	0	0	510	514	
3	0	0	0	0	508	513	
4	0	0	0	0	507	512	
5	0	0	0	0	508	511	
6	0	0	0	0	508	513	
7	0	0	0	0	508	513	
8	0	0	0	0	505	512	
9	0	0	0	0	508	513	
10	0	0	0	0	507	512	
11	0	0	0	0	505	515	
12	0	0	0	0	507	513	
13	0	0	0	0	508	512	
14	0	0	0	0	504	513	
15	0	0	0	0	504	511	
0	0	0	0	0	504	513	
1	0	0	0	0	504	511	
2	0	0	0	0	502	512	
3	0	0	0	0	499	513	
4	0	0	0	0	500	511	
5	0	0	0	0	502	510	
6	0	0	0	0	508	512	
7	0	0	0	0	507	509	
8	0	0	0	0	510	512	
9	0	0	0	0	513	514	
10	0	0	0	0	514	511	
11	0	0	0	0	508	511	
12	0	0	0	0	515	511	
13	0	0	0	0	515	513	
14	0	0	0	0	505	511	
15	0	0	0	0	491	512	
0	0	0	0	0	488	510	
1	0	0	0	0	509	512	
2	0	0	0	0	543	513	
3	0	0	0	0	546	509	
4	0	0	0	0	523	509	
5	0	0	0	0	508	512	
6	0	0	0	0	495	512	
7	0	0	0	0	489	512	
8	0	0	0	0	480	511	
9	0	0	0	0	461	509	
10	0	0	0	0	452	512	
11	0	0	0	0	461	513	
12	0	0	0	0	483	513	
13	0	0	0	0	499	515	
14	0	0	0	0	519	514	
15	0	0	0	0	529	512	
0	0	0	0	0	533	515	
1	0	0	0	0	540	511	
2	0	0	0	0	540	512	
3	0	0	0	0	533	511	
4	0	0	0	0	513	507	
5	0	0	0	0	492	509	
6	0	0	0	0	475	510	
7	0	0	0	0	481	510	
8	0	0	0	0	485	511	
9	0	0	0	0	497	512	
10	0	0	0	0	497	511	
11	0	0	0	0	499	512	
12	0	0	0	0	512	515	
13	0	0	0	0	521	515	
14	0	0	0	0	517	511	
15	0	0	0	0	516	515	
0	0	0	0	0	519	516	
1	0	0	0	0	515	515	
2	0	0	0	0	519	512	
3	0	0	0	0	507	510	
4	0	0	0	0	494	507	
5	0	0	0	0	480	505	
6	0	0	0	0	487	508	
7	0	0	0	0	498	509	
8	0	0	0	0	494	511	
9	0	0	0	0	493	511	
10	0	0	0	0	502	509	
11	0	0	0	0	507	512	
12	0	0	0	0	517	513	
13	0	0	0	0	520	513	
14	0	0	0	0	523	513	
15	0	0	0	0	516	515	
0	0	0	0	0	521	514	
1	0	0	0	0	525	512	
2	0	0	0	0	517	515	
3	0	0	0	0	505	515	
4	0	0	0	0	492	515	
5	0	0	0	0	487	515	
6	0	0	0	0	503	514	
7	0	0	0	0	508	514	
8	0	0	0	0	508	512	
9	0	0	0	0	511	509	
10	0	0	0	0	515	510	
11	0	0	0	0	515	509	
12	0	0	0	0	512	510	
13	0	0	0	0	508	510	
14	0	0	0	0	542	510	
15	0	0	0	0	544	508	
0	0	0	0	0	507	507	
1	0	0	0	0	481	510	
2	0	0	0	0	463	509	
3	0	0	0	0	453	509	
4	0	0	0	0	453	513	
5	0	0	0	0	460	514	
6	0	0	0	0	452	515	
7	0	0	0	0	478	514	
8	0	0	0	0	499	513	
9	0	0	0	0	508	515	
10	0	0	0	0	517	513	
11	0	0	0	0	524	511	
12	0	0	0	0	518	511	
13	0	0	0	0	527	515	
14	0	0	0	0	547	513	
15	0	0	0	0	555	515	
0	0	0	0	0	551	516	
1	0	0	0	0	540	515	
2	0	0	0	0	524	507	
3	0	0	0	0	512	504	
4	0	0	0	0	481	500	
5	0	0	0	0	458	503	
6	0	0	0	0	467	507	
7	0	0	0	0	486	513	
8	0	0	0	0	488	512	
9	0	0	0	0	490	510	
10	0	0	0	0	494	513	
11	0	0	0	0	506	515	
12	0	0	0	0	512	514	
13	0	0	0	0	511	515	
14	0	0	0	0	512	512	
15	0	0	0	0	512	514	
0	0	0	0	0	512	516	
1	0	0	0	0	515	515	
2	0	0	0	0	536	515	
3	0	0	0	0	540	516	
4	0	0	0	0	519	513	
5	0	0	0	0	514	514	
6	0	0	0	0	511	510	
7	0	0	0	0	487	511	
8	0	0	0	0	476	513	
9	0	0	0	0	465	512	
10	0	0	0	0	471	510	
11	0	0	0	0	489	509	
12	0	0	0	0	496	511	
13	0	0	0	0	507	513	
14	0	0	0	0	512	513	
15	0	0	0	0	510	512	
0	0	0	0	0	517	511	
1	0	0	0	0	534	511	
2	0	0	0	0	547	515	
3	0	0	0	0	546	515	
4	0	0	0	0	531	513	
5	0	0	0	0	509	510	
6	0	0	0	0	504	510	
7	0	0	0	0	491	508	
8	0	0	0	0	466	505	
9	0	0	0	0	463	505	
10	0	0	0	0	472	507	
11	0	0	0	0	492	510	
12	0	0	0	0	505	512	
13	0	0	0	0	513	514	
14	0	0	0	0	515	512	
15	0	0	0	0	510	513	
0	0	0	0	0	503	514	
1	0	0	0	0	497	514	
2	0	0	0	0	500	515	
3	0	0	0	0	503	514	
4	0	0	0	0	521	513	
5	0	0	0	0	531	513	
6	0	0	0	0	539	510	
7	0	0	0	0	542	509	
8	0	0	0	0	519	507	
9	0	0	0	0	491	508	
10	0	0	0	0	479	513	
11	0	0	0	0	471	513	
12	0	0	0	0	479	511	
13	0	0	0	0	489	512	
14	0	0	0	0	499	512	
15	0	0	0	0	514	513	
0	0	0	0	0	526	510	
1	0	0	0	0	528	511	
2	0	0	0	0	519	511	
3	0	0	0	0	508	511	
4	0	0	0	0	513	513	
5	0	0	0	0	507	516	
6	0	0	0	0	529	515	
7	0	0	0	0	542	516	
8	0	0	0	0	513	516	
9	0	0	0	0	511	511	
10	0	0	0	0	504	512	
11	0	0	0	0	476	507	
12	0	0	0	0	455	508	
13	0	0	0	0	455	508	
14	0	0	0	0	485	510	
15	0	0	0	0	516	511	
0	0	0	0	0	504	508	
1	0	0	0	0	491	510	
2	0	0	0	0	490	513	
3	0	0	0	0	490	512	
4	0	0	0	0	476	515	
5	0	0	0	0	470	515	
6	0	0	0	0	488	511	
7	0	0	0	0	516	514	
8	0	0	0	0	548	515	
9	0	0	0	0	568	514	
10	0	0	0	0	583	509	
11	0	0	0	0	563	511	
12	0	0	0	0	543	514	
13	0	0	0	0	512	508	
14	0	0	0	0	460	505	
15	0	0	0	0	446	509	
0	0	0	0	0	467	510	
1	0	0	0	0	473	512	
2	0	0	0	0	483	511	
3	0	0	0	0	489	509	
4	0	0	0	0	512	508	
5	0	0	0	0	520	511	
6	0	0	0	0	515	512	
7	0	0	0	0	513	512	
8	0	0	0	0	519	512	
9	0	0	0	0	507	513	
10	0	0	0	0	504	513	
11	0	0	0	0	507	513	
12	0	0	0	0	512	513	
13	0	0	0	0	510	511	
14	0	0	0	0	513	513	
15	0	0	0	0	512	513	
0	0	0	0	0	501	511	
1	0	0	0	0	491	513	
2	0	0	0	0	488	512	
3	0	0	0	0	487	513	
4	0	0	0	0	492	513	
5	0	0	0	0	496	513	
6	0	0	0	0	505	514	
7	0	0	0	0	517	513	
8	0	0	0	0	543	513	
9	0	0	0	0	548	512	
10	0	0	0	0	532	511	
11	0	0	0	0	512	514	
12	0	0	0	0	506	510	
13	0	0	0	0	509	511	
14	0	0	0	0	505	510	
15	0	0	0	0	504	511	
0	0	0	0	0	502	511	
1	0	0	0	0	489	508	
2	0	0	0	0	482	508	
3	0	0	0	0	474	513	
4	0	0	0	0	473	512	
5	0	0	0	0	481	510	
6	0	0	0	0	488	511	
7	0	0	0	0	499	512	
8	0	0	0	0	511	514	
9	0	0	0	0	513	513	
10	0	0	0	0	528	516	
11	0	0	0	0	534	517	
12	0	0	0	0	521	514	
13	0	0	0	0	512	512	
14	0	0	0	0	527	511	
15	0	0	0	0	524	508	
0	0	0	0	0	508	510	
1	0	0	0	0	499	509	
2	0	0	0	0	494	514	
3	0	0	0	0	486	513	
4	0	0	0	0	492	511	
5	0	0	0	0	498	513	
6	0	0	0	0	495	513	
7	0	0	0	0	501	513	
8	0	0	0	0	510	513	
9	0	0	0	0	515	515	
10	0	0	0	0	513	511	
11	0	0	0	0	489	511	
12	0	0	0	0	491	510	
13	0	0	0	0	503	507	
14	0	0	0	0	508	512	
15	0	0	0	0	513	511	
0	0	0	0	0	511	511	
1	0	0	0	0	532	513	
2	0	0	0	0	542	512	
3	0	0	0	0	512	513	
4	0	0	0	0	496	512	
5	0	0	0	0	524	511	
6	0	0	0	0	526	510	
7	0	0	0	0	499	509	
8	0	0	0	0	486	513	
9	0	0	0	0	478	513	
10	0	0	0	0	476	515	
11	0	0	0	0	489	516	
12	0	0	0	0	477	512	
13	0	0	0	0	476	511	
14	0	0	0	0	501	512	
15	0	0	0	0	512	512	
0	0	0	0	0	531	510	
1	0	0	0	0	568	509	
2	0	0	0	0	555	508	
3	0	0	0	0	532	510	
4	0	0	0	0	529	510	
5	0	0	0	0	520	510	
6	0	0	0	0	491	512	
7	0	0	0	0	447	512	
8	0	0	0	0	438	513	
9	0	0	0	0	479	512	
10	0	0	0	0	502	512	
11	0	0	0	0	495	511	
12	0	0	0	0	500	512	
13	0	0	0	0	513	513	
14	0	0	0	0	506	512	
15	0	0	0	0	494	513	
0	0	0	0	0	487	512	
1	0	0	0	0	490	511	
2	0	0	0	0	516	513	
3	0	0	0	0	541	513	
4	0	0	0	0	535	514	
5	0	0	0	0	527	515	
6	0	0	0	0	507	512	
7	0	0	0	0	493	510	
8	0	0	0	0	478	511	
9	0	0	0	0	464	511	
10	0	0	0	0	476	512	
11	0	0	0	0	516	512	
12	0	0	0	0	540	513	
13	0	0	0	0	543	512	
14	0	0	0	0	534	513	
15	0	0	0	0	514	513	
0	0	0	0	0	504	513	
1	0	0	0	0	492	510	
2	0	0	0	0	472	508	
3	0	0	0	0	474	515	
4	0	0	0	0	491	514	
5	0	0	0	0	522	512	
6	0	0	0	0	533	509	
7	0	0	0	0	526	512	
8	0	0	0	0	504	511	
9	0	0	0	0	495	510	
10	0	0	0	0	491	510	
11	0	0	0	0	504	512	
12	0	0	0	0	502	515	
13	0	0	0	0	489	512	
14	0	0	0	0	498	511	
15	0	0	0	0	532	513	
0	0	0	0	0	522	515	
1	0	0	0	0	500	515	
2	0	0	0	0	525	513	
3	0	0	0	0	521	512	
4	0	0	0	0	505	512	
5	0	0	0	0	513	512	
6	0	0	0	0	506	513	
7	0	0	0	0	507	511	
8	0	0	0	0	544	509	
9	0	0	0	0	575	507	
10	0	0	0	0	567	507	
11	0	0	0	0	531	512	
12	0	0	0	0	482	511	
13	0	0	0	0	458	512	
14	0	0	0	0	433	510	
15	0	0	0	0	395	509	
0	0	0	0	0	427	508	
1	0	0	0	0	465	513	
2	0	0	0	0	488	514	
3	0	0	0	0	508	512	
4	0	0	0	0	523	511	
5	0	0	0	0	525	514	
6	0	0	0	0	524	514	
7	0	0	0	0	523	512	
8	0	0	0	0	525	512	
9	0	0	0	0	522	514	
10	0	0	0	0	509	516	
11	0	0	0	0	512	516	
12	0	0	0	0	509	515	
13	0	0	0	0	503	512	
14	0	0	0	0	502	511	
15	0	0	0	0	508	510	
0	0	0	0	0	513	510	
1	0	0	0	0	519	512	
2	0	0	0	0	523	514	
3	0	0	0	0	550	512	
4	0	0	0	0	540	513	
5	0	0	0	0	511	516	
6	0	0	0	0	487	516	
7	0	0	0	0	468	512	
8	0	0	0	0	486	511	
9	0	0	0	0	487	511	
10	0	0	0	0	535	516	
11	0	0	0	0	547	511	
12	0	0	0	0	548	507	
13	0	0	0	0	531	507	
14	0	0	0	0	484	511	
15	0	0	0	0	446	514	
0	0	0	0	0	443	513	
1	0	0	0	0	473	512	
2	0	0	0	0	479	512	
3	0	0	0	0	485	509	
4	0	0	0	0	527	512	
5	0	0	0	0	543	511	
6	0	0	0	0	512	504	
7	0	0	0	0	478	508	
8	0	0	0	0	518	513	
9	0	0	0	0	585	515	
10	0	0	0	0	574	512	
11	0	0	0	0	508	510	
12	0	0	0	0	499	511	
13	0	0	0	0	494	509	
14	0	0	0	0	473	511	
15	0	0	0	0	432	513	
0	0	0	0	0	407	511	
1	0	0	0	0	446	512	
2	0	0	0	0	504	511	
3	0	0	0	0	521	511	
4	0	0	0	0	513	513	
5	0	0	0	0	524	513	
6	0	0	0	0	540	513	
7	0	0	0	0	535	513	
8	0	0	0	0	518	513	
9	0	0	0	0	537	513	
10	0	0	0	0	558	515	
11	0	0	0	0	556	515	
12	0	0	0	0	525	510	
13	0	0	0	0	502	508	
14	0	0	0	0	501	508	
15	0	0	0	0	472	507	
0	0	0	0	0	451	510	
1	0	0	0	0	467	513	
2	0	0	0	0	483	514	
3	0	0	0	0	496	512	
4	0	0	0	0	499	515	
5	0	0	0	0	504	518	
6	0	0	0	0	517	517	
7	0	0	0	0	518	513	
8	0	0	0	0	515	512	
9	0	0	0	0	518	513	
10	0	0	0	0	519	512	
11	0	0	0	0	518	509	
12	0	0	0	0	518	510	
13	0	0	0	0	508	511	
14	0	0	0	0	510	513	
15	0	0	0	0	511	510	
0	0	0	0	0	519	509	
1	0	0	0	0	516	513	
2	0	0	0	0	508	512	
3	0	0	0	0	519	513	
4	0	0	0	0	518	511	
5	0	0	0	0	495	513	
6	0	0	0	0	460	515	
7	0	0	0	0	456	510	
8	0	0	0	0	477	510	
9	0	0	0	0	510	508	
10	0	0	0	0	524	503	
11	0	0	0	0	531	507	
12	0	0	0	0	532	513	
13	0	0	0	0	527	518	
14	0	0	0	0	481	518	
15	0	0	0	0	481	518	
0	0	0	0	0	489	515	
1	0	0	0	0	460	513	
2	0	0	0	0	491	514	
3	0	0	0	0	501	512	
4	0	0	0	0	486	508	
5	0	0	0	0	487	504	
6	0	0	0	0	507	503	
7	0	0	0	0	539	507	
8	0	0	0	0	540	510	
9	0	0	0	0	525	510	
10	0	0	0	0	542	512	
11	0	0	0	0	556	516	
12	0	0	0	0	534	517	
13	0	0	0	0	494	515	
14	0	0	0	0	504	516	
15	0	0	0	0	524	516	
0	0	0	0	0	515	515	
1	0	0	0	0	488	514	
2	0	0	0	0	478	515	
3	0	0	0	0	467	510	
4	0	0	0	0	465	509	
5	0	0	0	0	471	507	
6	0	0	0	0	492	509	
7	0	0	0	0	505	514	
8	0	0	0	0	534	516	
9	0	0	0	0	542	515	
10	0	0	0	0	532	513	
11	0	0	0	0	510	514	
12	0	0	0	0	483	508	
13	0	0	0	0	492	505	
14	0	0	0	0	492	508	
15	0	0	0	0	502	507	
0	0	0	0	0	521	505	
1	0	0	0	0	514	507	
2	0	0	0	0	492	509	
3	0	0	0	0	483	514	
4	0	0	0	0	506	516	
5	0	0	0	0	530	518	
6	0	0	0	0	537	515	
7	0	0	0	0	537	517	
8	0	0	0	0	567	516	
9	0	0	0	0	541	515	
10	0	0	0	0	495	512	
11	0	0	0	0	443	513	
12	0	0	0	0	425	509	
13	0	0	0	0	418	502	
14	0	0	0	0	417	508	
15	0	0	0	0	471	510	
0	0	0	0	0	511	512	
1	0	0	0	0	536	513	
2	0	0	0	0	575	516	
3	0	0	0	0	604	517	
4	0	0	0	0	582	516	
5	0	0	0	0	508	511	
6	0	0	0	0	479	509	
7	0	0	0	0	460	508	
8	0	0	0	0	452	508	
9	0	0	0	0	466	506	
10	0	0	0	0	494	511	
11	0	0	0	0	514	517	
12	0	0	0	0	523	518	
13	0	0	0	0	529	518	
14	0	0	0	0	530	514	
15	0	0	0	0	530	513	
0	0	0	0	0	503	509	
1	0	0	0	0	477	504	
2	0	0	0	0	494	507	
3	0	0	0	0	514	509	
4	0	0	0	0	518	507	
5	0	0	0	0	523	508	
6	0	0	0	0	537	514	
7	0	0	0	0	540	512	
8	0	0	0	0	500	513	
9	0	0	0	0	462	514	
10	0	0	0	0	476	516	
11	0	0	0	0	489	519	
12	0	0	0	0	505	515	
13	0	0	0	0	529	516	
14	0	0	0	0	545	513	
15	0	0	0	0	499	505	
0	0	0	0	0	481	508	
1	0	0	0	0	465	509	
2	0	0	0	0	479	509	
3	0	0	0	0	515	513	
4	0	0	0	0	505	515	
5	0	0	0	0	514	518	
6	0	0	0	0	529	515	
7	0	0	0	0	513	513	
8	0	0	0	0	509	511	
9	0	0	0	0	511	515	
10	0	0	0	0	513	512	
11	0	0	0	0	539	504	
12	0	0	0	0	529	505	
13	0	0	0	0	501	504	
14	0	0	0	0	485	508	
15	0	0	0	0	487	510	
0	0	0	0	0	466	513	
1	0	0	0	0	443	517	
2	0	0	0	0	487	519	
3	0	0	0	0	532	519	
4	0	0	0	0	532	519	
5	0	0	0	0	540	517	
6	0	0	0	0	529	511	
7	0	0	0	0	511	506	
8	0	0	0	0	508	507	
9	0	0	0	0	515	510	
10	0	0	0	0	535	506	
11	0	0	0	0	513	507	
12	0	0	0	0	503	511	
13	0	0	0	0	506	511	
14	0	0	0	0	479	508	
15	0	0	0	0	473	510	
0	0	0	0	0	464	513	
1	0	0	0	0	469	515	
2	0	0	0	0	505	516	
3	0	0	0	0	529	519	
4	0	0	0	0	533	516	
5	0	0	0	0	545	521	
6	0	0	0	0	543	514	
7	0	0	0	0	521	516	
8	0	0	0	0	500	508	
9	0	0	0	0	479	502	
10	0	0	0	0	460	502	
11	0	0	0	0	448	504	
12	0	0	0	0	462	508	
13	0	0	0	0	483	512	
14	0	0	0	0	477	515	
15	0	0	0	0	504	518	
0	0	0	0	0	543	517	
1	0	0	0	0	543	515	
2	0	0	0	0	519	515	
3	0	0	0	0	523	512	
4	0	0	0	0	555	511	
5	0	0	0	0	547	508	
6	0	0	0	0	515	508	
7	0	0	0	0	506	512	
8	0	0	0	0	496	514	
9	0	0	0	0	480	520	
10	0	0	0	0	462	518	
11	0	0	0	0	525	514	
12	0	0	0	0	582	514	
13	0	0	0	0	560	515	
14	0	0	0	0	522	512	
15	0	0	0	0	505	505	
0	0	0	0	0	490	504	
1	0	0	0	0	414	509	
2	0	0	0	0	452	508	
3	0	0	0	0	507	503	
4	0	0	0	0	514	504	
5	0	0	0	0	472	508	
6	0	0	0	0	434	513	
7	0	0	0	0	453	510	
8	0	0	0	0	464	506	
9	0	0	0	0	479	511	
10	0	0	0	0	513	515	
11	0	0	0	0	524	515	
12	0	0	0	0	523	517	
13	0	0	0	0	527	517	
14	0	0	0	0	531	518	
15	0	0	0	0	517	517	
0	0	0	0	0	510	516	
1	0	0	0	0	513	515	
2	0	0	0	0	534	513	
3	0	0	0	0	521	511	
4	0	0	0	0	521	509	
5	0	0	0	0	534	505	
6	0	0	0	0	561	508	
7	0	0	0	0	519	511	
8	0	0	0	0	486	512	
9	0	0	0	0	478	512	
10	0	0	0	0	494	514	
11	0	0	0	0	500	515	
12	0	0	0	0	497	516	
13	0	0	0	0	507	515	
14	0	0	0	0	532	513	
15	0	0	0	0	537	511	
0	0	0	0	0	526	513	
1	0	0	0	0	508	512	
2	0	0	0	0	511	512	
3	0	0	0	0	488	510	
4	0	0	0	0	486	515	
5	0	0	0	0	537	516	
6	0	0	0	0	523	515	
7	0	0	0	0	505	515	
8	0	0	0	0	507	513	
9	0	0	0	0	519	507	
10	0	0	0	0	480	503	
11	0	0	0	0	455	500	
12	0	0	0	0	454	504	
13	0	0	0	0	461	509	
14	0	0	0	0	480	508	
15	0	0	0	0	513	510	
0	0	0	0	0	556	515	
1	0	0	0	0	553	515	
2	0	0	0	0	544	518	
3	0	0	0	0	510	515	
4	0	0	0	0	495	517	
5	0	0	0	0	502	512	
6	0	0	0	0	483	507	
7	0	0	0	0	480	508	
8	0	0	0	0	477	512	
9	0	0	0	0	451	515	
10	0	0	0	0	488	513	
11	0	0	0	0	519	511	
12	0	0	0	0	548	508	
13	0	0	0	0	553	511	
14	0	0	0	0	508	513	
15	0	0	0	0	486	513	
0	0	0	0	0	457	514	
1	0	0	0	0	437	516	
2	0	0	0	0	469	514	
3	0	0	0	0	504	514	
4	0	0	0	0	524	511	
5	0	0	0	0	532	509	
6	0	0	0	0	527	508	
7	0	0	0	0	518	512	
8	0	0	0	0	512	515	
9	0	0	0	0	518	515	
10	0	0	0	0	526	520	
11	0	0	0	0	531	517	
12	0	0	0	0	543	511	
13	0	0	0	0	543	507	
14	0	0	0	0	542	507	
15	0	0	0	0	531	505	
0	0	0	0	0	505	507	
1	0	0	0	0	485	507	
2	0	0	0	0	486	505	
3	0	0	0	0	481	509	
4	0	0	0	0	479	510	
5	0	0	0	0	485	515	
6	0	0	0	0	496	518	
7	0	0	0	0	492	515	
8	0	0	0	0	496	514	
9	0	0	0	0	490	515	
10	0	0	0	0	507	517	
11	0	0	0	0	497	516	
12	0	0	0	0	513	514	
13	0	0	0	0	543	510	
14	0	0	0	0	534	508	
15	0	0	0	0	510	511	
0	0	0	0	0	476	510	
1	0	0	0	0	464	510	
2	0	0	0	0	442	512	
3	0	0	0	0	477	513	
4	0	0	0	0	559	515	
5	0	0	0	0	577	513	
6	0	0	0	0	568	513	
7	0	0	0	0	563	511	
8	0	0	0	0	543	510	
9	0	0	0	0	486	507	
10	0	0	0	0	418	506	
11	0	0	0	0	456	505	
12	0	0	0	0	483	512	
13	0	0	0	0	470	515	
14	0	0	0	0	466	516	
15	0	0	0	0	470	517	
0	0	0	0	0	469	515	
1	0	0	0	0	481	512	
2	0	0	0	0	516	507	
3	0	0	0	0	548	505	
4	0	0	0	0	561	512	
5	0	0	0	0	579	516	
6	0	0	0	0	567	511	
7	0	0	0	0	515	513	
8	0	0	0	0	500	514	
9	0	0	0	0	489	512	
10	0	0	0	0	496	506	
11	0	0	0	0	480	502	
12	0	0	0	0	476	502	
13	0	0	0	0	504	511	
14	0	0	0	0	489	515	
15	0	0	0	0	496	519	
0	0	0	0	0	527	520	
1	0	0	0	0	552	517	
2	0	0	0	0	535	514	
3	0	0	0	0	544	517	
4	0	0	0	0	556	509	
5	0	0	0	0	513	505	
6	0	0	0	0	474	510	
7	0	0	0	0	460	508	
8	0	0	0	0	440	507	
9	0	0	0	0	417	515	
10	0	0	0	0	443	517	
11	0	0	0	0	475	518	
12	0	0	0	0	493	517	
13	0	0	0	0	501	512	
14	0	0	0	0	499	512	
15	0	0	0	0	503	513	
0	0	0	0	0	563	512	
1	0	0	0	0	600	515	
2	0	0	0	0	579	518	
3	0	0	0	0	513	518	
4	0	0	0	0	519	514	
5	0	0	0	0	488	501	
6	0	0	0	0	470	500	
7	0	0	0	0	499	505	
8	0	0	0	0	539	503	
9	0	0	0	0	543	505	
10	0	0	0	0	499	505	
11	0	0	0	0	481	508	
12	0	0	0	0	458	511	
13	0	0	0	0	437	513	
14	0	0	0	0	436	515	
15	0	0	0	0	478	517	
0	0	0	0	0	529	518	
1	0	0	0	0	560	520	
2	0	0	0	0	561	519	
3	0	0	0	0	524	516	
4	0	0	0	0	512	516	
5	0	0	0	0	514	516	
6	0	0	0	0	519	515	
7	0	0	0	0	527	508	
8	0	0	0	0	550	501	
9	0	0	0	0	635	499	
10	0	0	0	0	565	505	
11	0	0	0	0	445	513	
12	0	0	0	0	391	518	
13	0	0	0	0	398	515	
14	0	0	0	0	426	518	
15	0	0	0	0	427	516	
0	0	0	0	0	460	516	
1	0	0	0	0	507	515	
2	0	0	0	0	619	515	
3	0	0	0	0	613	508	
4	0	0	0	0	649	503	
5	0	0	0	0	639	509	
6	0	0	0	0	499	513	
7	0	0	0	0	414	516	
8	0	0	0	0	385	513	
9	0	0	0	0	415	514	
10	0	0	0	0	451	511	
11	0	0	0	0	462	505	
12	0	0	0	0	473	502	
13	0	0	0	0	494	497	
14	0	0	0	0	476	502	
15	0	0	0	0	458	508	
0	0	0	0	0	517	512	
1	0	0	0	0	540	513	
2	0	0	0	0	527	512	
3	0	0	0	0	511	515	
4	0	0	0	0	494	516	
5	0	0	0	0	491	518	
6	0	0	0	0	510	522	
7	0	0	0	0	545	519	
8	0	0	0	0	572	520	
9	0	0	0	0	604	517	
10	0	0	0	0	589	509	
11	0	0	0	0	553	511	
12	0	0	0	0	512	514	
13	0	0	0	0	547	513	
14	0	0	0	0	536	510	
15	0	0	0	0	474	504	
0	0	0	0	0	463	504	
1	0	0	0	0	477	507	
2	0	0	0	0	438	510	
3	0	0	0	0	362	511	
4	0	0	0	0	374	519	
5	0	0	0	0	440	512	
6	0	0	0	0	505	513	
7	0	0	0	0	526	511	
8	0	0	0	0	574	511	
9	0	0	0	0	644	514	
10	0	0	0	0	622	510	
11	0	0	0	0	551	512	
12	0	0	0	0	536	510	
13	0	0	0	0	537	511	
14	0	0	0	0	515	510	
15	0	0	0	0	425	508	
0	0	0	0	0	430	515	
1	0	0	0	0	470	521	
2	0	0	0	0	523	519	
3	0	0	0	0	496	509	
4	0	0	0	0	460	508	
5	0	0	0	0	502	508	
6	0	0	0	0	530	506	
7	0	0	0	0	507	508	
8	0	0	0	0	483	511	
9	0	0	0	0	460	508	
10	0	0	0	0	501	511	
11	0	0	0	0	485	515	
12	0	0	0	0	503	521	
13	0	0	0	0	520	519	
14	0	0	0	0	533	516	
15	0	0	0	0	556	508	
0	0	0	0	0	575	508	
1	0	0	0	0	553	509	
2	0	0	0	0	511	510	
3	0	0	0	0	474	510	
4	0	0	0	0	440	507	
5	0	0	0	0	430	504	
6	0	0	0	0	479	507	
7	0	0	0	0	515	513	
8	0	0	0	0	508	520	
9	0	0	0	0	573	524	
10	0	0	0	0	595	520	
11	0	0	0	0	533	516	
12	0	0	0	0	456	518	
13	0	0	0	0	466	514	
14	0	0	0	0	465	499	
15	0	0	0	0	451	497	
0	0	0	0	0	459	499	
1	0	0	0	0	524	506	
2	0	0	0	0	528	510	
3	0	0	0	0	528	509	
4	0	0	0	0	536	507	
5	0	0	0	0	488	511	
6	0	0	0	0	460	513	
7	0	0	0	0	487	515	
8	0	0	0	0	499	515	
9	0	0	0	0	524	517	
10	0	0	0	0	545	516	
11	0	0	0	0	575	520	
12	0	0	0	0	577	519	
13	0	0	0	0	563	515	
14	0	0	0	0	504	513	
15	0	0	0	0	459	509	
0	0	0	0	0	440	513	
1	0	0	0	0	449	511	
2	0	0	0	0	461	511	
3	0	0	0	0	481	515	
4	0	0	0	0	495	515	
5	0	0	0	0	548	515	
6	0	0	0	0	560	512	
7	0	0	0	0	525	507	
8	0	0	0	0	512	507	
9	0	0	0	0	489	512	
10	0	0	0	0	492	517	
11	0	0	0	0	476	516	
12	0	0	0	0	570	528	
13	0	0	0	0	624	524	
14	0	0	0	0	612	514	
15	0	0	0	0	541	504	
0	0	0	0	0	517	499	
1	0	0	0	0	455	502	
2	0	0	0	0	333	507	
3	0	0	0	0	311	515	
4	0	0	0	0	377	514	
5	0	0	0	0	460	506	
6	0	0	0	0	523	509	
7	0	0	0	0	531	508	
8	0	0	0	0	590	507	
9	0	0	0	0	606	506	
10	0	0	0	0	623	508	
11	0	0	0	0	563	508	
12	0	0	0	0	481	510	
13	0	0	0	0	399	510	
14	0	0	0	0	412	510	
15	0	0	0	0	437	518	
0	0	0	0	0	474	519	
1	0	0	0	0	600	515	
2	0	0	0	0	600	521	
3	0	0	0	0	545	516	
4	0	0	0	0	547	509	
5	0	0	0	0	540	508	
6	0	0	0	0	461	506	
7	0	0	0	0	420	505	
8	0	0	0	0	434	507	
9	0	0	0	0	443	511	
10	0	0	0	0	507	511	
11	0	0	0	0	549	518	
12	0	0	0	0	584	524	
13	0	0	0	0	557	526	
14	0	0	0	0	532	521	
15	0	0	0	0	604	518	
0	0	0	0	0	574	512	
1	0	0	0	0	523	505	
2	0	0	0	0	455	502	
3	0	0	0	0	439	503	
4	0	0	0	0	435	502	
5	0	0	0	0	371	508	
6	0	0	0	0	383	511	
7	0	0	0	0	476	510	
8	0	0	0	0	527	516	
9	0	0	0	0	526	519	
10	0	0	0	0	547	520	
11	0	0	0	0	531	521	
12	0	0	0	0	512	513	
13	0	0	0	0	518	509	
14	0	0	0	0	540	508	
15	0	0	0	0	537	505	
0	0	0	0	0	558	510	
1	0	0	0	0	535	512	
2	0	0	0	0	511	511	
3	0	0	0	0	485	516	
4	0	0	0	0	469	519	
5	0	0	0	0	514	518	
6	0	0	0	0	552	518	
7	0	0	0	0	601	514	
8	0	0	0	0	670	506	
9	0	0	0	0	633	505	
10	0	0	0	0	519	509	
11	0	0	0	0	396	507	
12	0	0	0	0	335	505	
13	0	0	0	0	322	505	
14	0	0	0	0	318	505	
15	0	0	0	0	364	511	
0	0	0	0	0	460	515	
1	0	0	0	0	524	519	
2	0	0	0	0	534	522	
3	0	0	0	0	556	521	
4	0	0	0	0	577	515	
5	0	0	0	0	551	512	
6	0	0	0	0	569	514	
7	0	0	0	0	564	514	
8	0	0	0	0	545	511	
9	0	0	0	0	519	507	
10	0	0	0	0	547	504	
11	0	0	0	0	589	503	
12	0	0	0	0	560	507	
13	0	0	0	0	503	512	
14	0	0	0	0	471	508	
15	0	0	0	0	433	501	
0	0	0	0	0	416	506	
1	0	0	0	0	434	510	
2	0	0	0	0	439	513	
3	0	0	0	0	448	513	
4	0	0	0	0	472	515	
5	0	0	0	0	521	518	
6	0	0	0	0	576	514	
7	0	0	0	0	659	521	
8	0	0	0	0	688	512	
9	0	0	0	0	625	509	
10	0	0	0	0	534	504	
11	0	0	0	0	430	504	
12	0	0	0	0	292	511	
13	0	0	0	0	316	518	
14	0	0	0	0	395	518	
15	0	0	0	0	487	512	
0	0	0	0	0	561	511	
1	0	0	0	0	554	512	
2	0	0	0	0	532	510	
3	0	0	0	0	523	515	
4	0	0	0	0	521	518	
5	0	0	0	0	515	522	
6	0	0	0	0	560	525	
7	0	0	0	0	653	524	
8	0	0	0	0	575	517	
9	0	0	0	0	500	511	
10	0	0	0	0	516	510	
11	0	0	0	0	499	505	
12	0	0	0	0	405	495	
13	0	0	0	0	347	492	
14	0	0	0	0	426	502	
15	0	0	0	0	620	509	
0	0	0	0	0	657	506	
1	0	0	0	0	608	507	
2	0	0	0	0	541	508	
3	0	0	0	0	469	508	
4	0	0	0	0	426	512	
5	0	0	0	0	395	513	
6	0	0	0	0	364	514	
7	0	0	0	0	384	516	
8	0	0	0	0	449	520	
9	0	0	0	0	504	525	
10	0	0	0	0	540	520	
11	0	0	0	0	584	519	
12	0	0	0	0	597	514	
13	0	0	0	0	569	509	
14	0	0	0	0	513	502	
15	0	0	0	0	502	505	
0	0	0	0	0	448	508	
1	0	0	0	0	512	513	
2	0	0	0	0	531	512	
3	0	0	0	0	518	513	
4	0	0	0	0	516	519	
5	0	0	0	0	540	517	
6	0	0	0	0	546	514	
7	0	0	0	0	507	515	
8	0	0	0	0	480	510	
9	0	0	0	0	452	508	
10	0	0	0	0	447	510	
11	0	0	0	0	449	505	
12	0	0	0	0	467	513	
13	0	0	0	0	501	518	
14	0	0	0	0	547	521	
15	0	0	0	0	551	519	
0	0	0	0	0	531	516	
1	0	0	0	0	532	519	
2	0	0	0	0	524	514	
3	0	0	0	0	501	508	
4	0	0	0	0	538	498	
5	0	0	0	0	566	500	
6	0	0	0	0	511	500	
7	0	0	0	0	511	499	
8	0	0	0	0	536	503	
9	0	0	0	0	516	511	
10	0	0	0	0	483	515	
11	0	0	0	0	473	518	
12	0	0	0	0	569	508	
13	0	0	0	0	598	511	
14	0	0	0	0	585	510	
15	0	0	0	0	536	514	
0	0	0	0	0	483	515	
1	0	0	0	0	436	509	
2	0	0	0	0	381	513	
3	0	0	0	0	323	517	
4	0	0	0	0	320	513	
5	0	0	0	0	372	510	
6	0	0	0	0	467	515	
7	0	0	0	0	532	513	
8	0	0	0	0	555	510	
9	0	0	0	0	547	511	
10	0	0	0	0	522	515	
11	0	0	0	0	526	521	
12	0	0	0	0	531	523	
13	0	0	0	0	531	520	
14	0	0	0	0	516	520	
15	0	0	0	0	513	514	
0	0	0	0	0	500	507	
1	0	0	0	0	522	507	
2	0	0	0	0	566	504	
3	0	0	0	0	574	494	
4	0	0	0	0	570	494	
5	0	0	0	0	551	502	
6	0	0	0	0	525	512	
7	0	0	0	0	502	513	
8	0	0	0	0	494	517	
9	0	0	0	0	492	519	
10	0	0	0	0	487	517	
11	0	0	0	0	494	520	
12	0	0	0	0	511	520	
13	0	0	0	0	513	519	
14	0	0	0	0	508	515	
15	0	0	0	0	537	517	
0	0	0	0	0	594	507	
1	0	0	0	0	572	510	
2	0	0	0	0	536	514	
3	0	0	0	0	498	509	
4	0	0	0	0	444	505	
5	0	0	0	0	371	503	
6	0	0	0	0	348	509	
7	0	0	0	0	435	515	
8	0	0	0	0	578	517	
9	0	0	0	0	639	515	
10	0	0	0	0	592	516	
11	0	0	0	0	518	508	
12	0	0	0	0	492	508	
13	0	0	0	0	433	507	
14	0	0	0	0	345	509	
15	0	0	0	0	420	512	
0	0	0	0	0	503	513	
1	0	0	0	0	541	512	
2	0	0	0	0	504	514	
3	0	0	0	0	483	517	
4	0	0	0	0	438	519	
5	0	0	0	0	435	520	
6	0	0	0	0	512	520	
7	0	0	0	0	642	519	
8	0	0	0	0	691	513	
9	0	0	0	0	695	504	
10	0	0	0	0	646	508	
11	0	0	0	0	529	506	
12	0	0	0	0	425	497	
13	0	0	0	0	326	502	
14	0	0	0	0	336	504	
15	0	0	0	0	409	505	
0	0	0	0	0	457	506	
1	0	0	0	0	499	506	
2	0	0	0	0	536	509	
3	0	0	0	0	551	514	
4	0	0	0	0	541	515	
5	0	0	0	0	504	513	
6	0	0	0	0	495	517	
7	0	0	0	0	528	520	
8	0	0	0	0	561	523	
9	0	0	0	0	601	519	
10	0	0	0	0	580	516	
11	0	0	0	0	507	514	
12	0	0	0	0	445	507	
13	0	0	0	0	408	512	
14	0	0	0	0	401	514	
15	0	0	0	0	454	510	
0	0	0	0	0	510	508	
1	0	0	0	0	535	512	
2	0	0	0	0	562	513	
3	0	0	0	0	553	513	
4	0	0	0	0	527	514	
5	0	0	0	0	509	512	
6	0	0	0	0	515	519	
7	0	0	0	0	513	516	
8	0	0	0	0	507	512	
9	0	0	0	0	457	507	
10	0	0	0	0	444	511	
11	0	0	0	0	462	508	
12	0	0	0	0	499	507	
13	0	0	0	0	575	506	
14	0	0	0	0	591	511	
15	0	0	0	0	570	515	
0	0	0	0	0	539	514	
1	0	0	0	0	491	513	
2	0	0	0	0	469	513	
3	0	0	0	0	467	514	
4	0	0	0	0	479	512	
5	0	0	0	0	501	509	
6	0	0	0	0	512	508	
7	0	0	0	0	538	509	
8	0	0	0	0	521	508	
9	0	0	0	0	507	511	
10	0	0	0	0	506	517	
11	0	0	0	0	515	514	
12	0	0	0	0	503	516	
13	0	0	0	0	494	519	
14	0	0	0	0	467	515	
15	0	0	0	0	447	507	
0	0	0	0	0	455	509	
1	0	0	0	0	495	505	
2	0	0	0	0	499	504	
3	0	0	0	0	524	512	
4	0	0	0	0	547	513	
5	0	0	0	0	541	515	
6	0	0	0	0	512	515	
7	0	0	0	0	499	512	
8	0	0	0	0	507	513	
9	0	0	0	0	487	510	
10	0	0	0	0	472	510	
11	0	0	0	0	476	511	
12	0	0	0	0	500	510	
13	0	0	0	0	504	510	
14	0	0	0	0	545	513	
15	0	0	0	0	585	513	
0	0	0	0	0	579	516	
1	0	0	0	0	543	511	
2	0	0	0	0	501	508	
3	0	0	0	0	480	511	
4	0	0	0	0	423	514	
5	0	0	0	0	448	512	
6	0	0	0	0	458	511	
7	0	0	0	0	463	511	
8	0	0	0	0	494	510	
9	0	0	0	0	537	513	
10	0	0	0	0	545	513	
11	0	0	0	0	557	515	
12	0	0	0	0	539	518	
13	0	0	0	0	519	519	
14	0	0	0	0	506	518	
15	0	0	0	0	463	515	
0	0	0	0	0	465	508	
1	0	0	0	0	497	504	
2	0	0	0	0	507	510	
3	0	0	0	0	526	512	
4	0	0	0	0	561	513	
5	0	0	0	0	540	513	
6	0	0	0	0	532	510	
7	0	0	0	0	529	508	
8	0	0	0	0	456	509	
9	0	0	0	0	372	507	
10	0	0	0	0	459	510	
11	0	0	0	0	575	508	
12	0	0	0	0	561	506	
13	0	0	0	0	510	511	
14	0	0	0	0	487	511	
15	0	0	0	0	467	508	
0	0	0	0	0	449	513	
1	0	0	0	0	451	513	
2	0	0	0	0	479	510	
3	0	0	0	0	501	513	
4	0	0	0	0	513	515	
5	0	0	0	0	547	518	
6	0	0	0	0	564	515	
7	0	0	0	0	573	511	
8	0	0	0	0	583	515	
9	0	0	0	0	524	512	
10	0	0	0	0	489	511	
11	0	0	0	0	533	514	
12	0	0	0	0	542	516	
13	0	0	0	0	529	510	
14	0	0	0	0	482	507	
15	0	0	0	0	455	504	
0	0	0	0	0	438	506	
1	0	0	0	0	418	510	
2	0	0	0	0	447	512	
3	0	0	0	0	489	513	
4	0	0	0	0	510	512	
5	0	0	0	0	517	515	
6	0	0	0	0	521	511	
7	0	0	0	0	513	511	
8	0	0	0	0	484	512	
9	0	0	0	0	500	516	
10	0	0	0	0	516	517	
11	0	0	0	0	527	513	
12	0	0	0	0	529	513	
13	0	0	0	0	510	513	
14	0	0	0	0	522	509	
15	0	0	0	0	519	509	
0	0	0	0	0	513	510	
1	0	0	0	0	517	512	
2	0	0	0	0	510	510	
3	0	0	0	0	511	512	
4	0	0	0	0	500	511	
5	0	0	0	0	487	511	
6	0	0	0	0	503	513	
7	0	0	0	0	545	514	
8	0	0	0	0	538	513	
9	0	0	0	0	513	513	
10	0	0	0	0	536	513	
11	0	0	0	0	518	515	
12	0	0	0	0	465	514	
13	0	0	0	0	450	509	
14	0	0	0	0	496	511	
15	0	0	0	0	558	510	
0	0	0	0	0	536	508	
1	0	0	0	0	499	510	
2	0	0	0	0	487	509	
3	0	0	0	0	472	507	
4	0	0	0	0	406	509	
5	0	0	0	0	423	512	
6	0	0	0	0	483	512	
7	0	0	0	0	543	510	
8	0	0	0	0	541	508	
9	0	0	0	0	518	514	
10	0	0	0	0	509	518	
11	0	0	0	0	528	520	
12	0	0	0	0	530	519	
13	0	0	0	0	512	510	
14	0	0	0	0	528	513	
15	0	0	0	0	531	512	
0	0	0	0	0	516	504	
1	0	0	0	0	519	507	
2	0	0	0	0	525	507	
3	0	0	0	0	504	512	
4	0	0	0	0	485	514	
5	0	0	0	0	497	513	
6	0	0	0	0	500	513	
7	0	0	0	0	547	510	
8	0	0	0	0	519	511	
9	0	0	0	0	498	512	
10	0	0	0	0	448	513	
11	0	0	0	0	429	508	
12	0	0	0	0	426	503	
13	0	0	0	0	462	507	
14	0	0	0	0	525	513	
15	0	0	0	0	536	515	
0	0	0	0	0	529	515	
1	0	0	0	0	508	514	
2	0	0	0	0	510	514	
3	0	0	0	0	517	515	
4	0	0	0	0	507	513	
5	0	0	0	0	499	515	
6	0	0	0	0	524	516	
7	0	0	0	0	566	515	
8	0	0	0	0	599	512	
9	0	0	0	0	588	509	
10	0	0	0	0	545	511	
11	0	0	0	0	489	511	
12	0	0	0	0	425	508	
13	0	0	0	0	371	508	
14	0	0	0	0	430	510	
15	0	0	0	0	476	507	
0	0	0	0	0	507	510	
1	0	0	0	0	527	516	
2	0	0	0	0	560	520	
3	0	0	0	0	544	514	
4	0	0	0	0	512	510	
5	0	0	0	0	518	506	
6	0	0	0	0	515	507	
7	0	0	0	0	514	509	
8	0	0	0	0	499	509	
9	0	0	0	0	473	514	
10	0	0	0	0	435	512	
11	0	0	0	0	458	511	
12	0	0	0	0	492	512	
13	0	0	0	0	506	512	
14	0	0	0	0	533	514	
15	0	0	0	0	574	512	
0	0	0	0	0	572	516	
1	0	0	0	0	524	514	
2	0	0	0	0	500	511	
3	0	0	0	0	481	510	
4	0	0	0	0	455	509	
5	0	0	0	0	478	509	
6	0	0	0	0	498	511	
7	0	0	0	0	491	514	
8	0	0	0	0	498	519	
9	0	0	0	0	507	521	
10	0	0	0	0	518	513	
11	0	0	0	0	540	510	
12	0	0	0	0	559	510	
13	0	0	0	0	566	511	
14	0	0	0	0	551	512	
15	0	0	0	0	515	511	
0	0	0	0	0	508	504	
1	0	0	0	0	505	507	
2	0	0	0	0	481	507	
3	0	0	0	0	461	507	
4	0	0	0	0	453	509	
5	0	0	0	0	463	512	
6	0	0	0	0	449	514	
7	0	0	0	0	457	519	
8	0	0	0	0	480	520	
9	0	0	0	0	536	520	
10	0	0	0	0	536	514	
11	0	0	0	0	545	511	
12	0	0	0	0	543	507	
13	0	0	0	0	527	507	
14	0	0	0	0	503	508	
15	0	0	0	0	468	512	
0	0	0	0	0	476	509	
1	0	0	0	0	494	507	
2	0	0	0	0	522	509	
3	0	0	0	0	562	512	
4	0	0	0	0	567	510	
5	0	0	0	0	519	516	
6	0	0	0	0	481	515	
7	0	0	0	0	464	515	
8	0	0	0	0	455	515	
9	0	0	0	0	466	514	
10	0	0	0	0	501	513	
11	0	0	0	0	531	510	
12	0	0	0	0	552	510	
13	0	0	0	0	550	512	
14	0	0	0	0	511	512	
15	0	0	0	0	477	508	
0	0	0	0	0	499	506	
1	0	0	0	0	496	510	
2	0	0	0	0	496	513	
3	0	0	0	0	480	511	
4	0	0	0	0	491	514	
5	0	0	0	0	508	513	
6	0	0	0	0	508	513	
7	0	0	0	0	508	511	
8	0	0	0	0	495	513	
9	0	0	0	0	489	513	
10	0	0	0	0	502	510	
11	0	0	0	0	519	511	
12	0	0	0	0	539	514	
13	0	0	0	0	543	514	
14	0	0	0	0	550	516	
15	0	0	0	0	538	515	
0	0	0	0	0	502	510	
1	0	0	0	0	467	508	
2	0	0	0	0	476	511	
3	0	0	0	0	491	512	
4	0	0	0	0	482	508	
5	0	0	0	0	479	511	
6	0	0	0	0	484	515	
7	0	0	0	0	480	515	
8	0	0	0	0	478	512	
9	0	0	0	0	499	513	
10	0	0	0	0	544	514	
11	0	0	0	0	549	510	
12	0	0	0	0	551	508	
13	0	0	0	0	553	511	
14	0	0	0	0	531	515	
15	0	0	0	0	521	515	
0	0	0	0	0	494	515	
1	0	0	0	0	493	510	
2	0	0	0	0	482	508	
3	0	0	0	0	455	504	
4	0	0	0	0	460	508	
5	0	0	0	0	479	512	
6	0	0	0	0	498	511	
7	0	0	0	0	510	513	
8	0	0	0	0	522	511	
9	0	0	0	0	539	513	
10	0	0	0	0	520	516	
11	0	0	0	0	502	512	
12	0	0	0	0	495	509	
13	0	0	0	0	515	511	
14	0	0	0	0	538	512	
15	0	0	0	0	502	511	
0	0	0	0	0	492	510	
1	0	0	0	0	495	511	
2	0	0	0	0	503	514	
3	0	0	0	0	471	512	
4	0	0	0	0	465	512	
5	0	0	0	0	515	512	
6	0	0	0	0	521	507	
7	0	0	0	0	515	513	
8	0	0	0	0	498	514	
9	0	0	0	0	496	512	
10	0	0	0	0	502	514	
11	0	0	0	0	519	516	
12	0	0	0	0	571	519	
13	0	0	0	0	540	515	
14	0	0	0	0	498	515	
15	0	0	0	0	532	515	
0	0	0	0	0	574	511	
1	0	0	0	0	524	512	
2	0	0	0	0	521	512	
3	0	0	0	0	494	505	
4	0	0	0	0	476	500	
5	0	0	0	0	424	507	
6	0	0	0	0	395	508	
7	0	0	0	0	430	503	
8	0	0	0	0	489	510	
9	0	0	0	0	504	513	
10	0	0	0	0	511	514	
11	0	0	0	0	511	513	
12	0	0	0	0	496	515	
13	0	0	0	0	494	515	
14	0	0	0	0	497	514	
15	0	0	0	0	502	514	
0	0	0	0	0	511	516	
1	0	0	0	0	529	515	
2	0	0	0	0	541	516	
3	0	0	0	0	512	515	
4	0	0	0	0	497	513	
5	0	0	0	0	513	511	
6	0	0	0	0	552	514	
7	0	0	0	0	573	511	
8	0	0	0	0	548	506	
9	0	0	0	0	519	508	
10	0	0	0	0	508	511	
11	0	0	0	0	484	512	
12	0	0	0	0	483	511	
13	0	0	0	0	514	514	
14	0	0	0	0	508	513	
15	0	0	0	0	509	513	
0	0	0	0	0	474	514	
1	0	0	0	0	480	515	
2	0	0	0	0	535	514	
3	0	0	0	0	550	511	
4	0	0	0	0	536	509	
5	0	0	0	0	499	506	
6	0	0	0	0	467	508	
7	0	0	0	0	451	515	
8	0	0	0	0	481	515	
9	0	0	0	0	499	510	
10	0	0	0	0	506	511	
11	0	0	0	0	499	512	
12	0	0	0	0	484	515	
13	0	0	0	0	488	518	
14	0	0	0	0	524	521	
15	0	0	0	0	573	516	
0	0	0	0	0	547	514	
1	0	0	0	0	533	511	
2	0	0	0	0	529	507	
3	0	0	0	0	533	503	
4	0	0	0	0	499	504	
5	0	0	0	0	452	511	
6	0	0	0	0	441	511	
7	0	0	0	0	479	508	
8	0	0	0	0	461	509	
9	0	0	0	0	435	512	
10	0	0	0	0	487	515	
11	0	0	0	0	511	518	
12	0	0	0	0	521	520	
13	0	0	0	0	473	513	
14	0	0	0	0	477	510	
15	0	0	0	0	504	513	
0	0	0	0	0	467	514	
1	0	0	0	0	450	517	
2	0	0	0	0	512	516	
3	0	0	0	0	565	514	
4	0	0	0	0	535	510	
5	0	0	0	0	520	508	
6	0	0	0	0	560	504	
7	0	0	0	0	609	500	
8	0	0	0	0	614	505	
9	0	0	0	0	563	513	
10	0	0	0	0	522	515	
11	0	0	0	0	482	518	
12	0	0	0	0	473	515	
13	0	0	0	0	448	513	
14	0	0	0	0	486	513	
15	0	0	0	0	515	515	
0	0	0	0	0	495	512	
1	0	0	0	0	492	512	
2	0	0	0	0	481	508	
3	0	0	0	0	480	510	
4	0	0	0	0	515	516	
5	0	0	0	0	550	514	
6	0	0	0	0	523	518	
7	0	0	0	0	497	515	
8	0	0	0	0	470	513	
9	0	0	0	0	463	515	
10	0	0	0	0	440	511	
11	0	0	0	0	483	509	
12	0	0	0	0	534	509	
13	0	0	0	0	547	511	
14	0	0	0	0	543	510	
15	0	0	0	0	536	510	
0	0	0	0	0	521	509	
1	0	0	0	0	479	510	
2	0	0	0	0	466	513	
3	0	0	0	0	505	514	
4	0	0	0	0	522	517	
5	0	0	0	0	505	514	
6	0	0	0	0	512	509	
7	0	0	0	0	495	511	
8	0	0	0	0	472	511	
9	0	0	0	0	462	511	
10	0	0	0	0	482	509	
11	0	0	0	0	504	511	
12	0	0	0	0	511	512	
13	0	0	0	0	510	511	
14	0	0	0	0	517	512	
15	0	0	0	0	528	512	
0	0	0	0	0	541	515	
1	0	0	0	0	541	517	
2	0	0	0	0	517	516	
3	0	0	0	0	514	513	
4	0	0	0	0	502	509	
5	0	0	0	0	455	510	
6	0	0	0	0	451	515	
7	0	0	0	0	480	511	
8	0	0	0	0	506	511	
9	0	0	0	0	505	508	
10	0	0	0	0	549	505	
11	0	0	0	0	565	508	
12	0	0	0	0	566	515	
13	0	0	0	0	551	515	
14	0	0	0	0	519	513	
15	0	0	0	0	467	507	
0	0	0	0	0	429	509	
1	0	0	0	0	463	512	
2	0	0	0	0	512	511	
3	0	0	0	0	524	512	
4	0	0	0	0	532	513	
5	0	0	0	0	519	508	
6	0	0	0	0	505	509	
7	0	0	0	0	483	510	
8	0	0	0	0	476	513	
9	0	0	0	0	500	515	
10	0	0	0	0	519	514	
11	0	0	0	0	516	515	
12	0	0	0	0	495	517	
13	0	0	0	0	500	519	
14	0	0	0	0	554	519	
15	0	0	0	0	579	519	
0	0	0	0	0	534	512	
1	0	0	0	0	499	507	
2	0	0	0	0	461	504	
3	0	0	0	0	456	501	
4	0	0	0	0	456	506	
5	0	0	0	0	464	508	
6	0	0	0	0	476	513	
7	0	0	0	0	500	511	
8	0	0	0	0	510	511	
9	0	0	0	0	499	513	
10	0	0	0	0	489	514	
11	0	0	0	0	497	515	
12	0	0	0	0	504	513	
13	0	0	0	0	494	516	
14	0	0	0	0	500	516	
15	0	0	0	0	547	515	
0	0	0	0	0	566	515	
1	0	0	0	0	551	511	
2	0	0	0	0	535	512	
3	0	0	0	0	520	511	
4	0	0	0	0	473	510	
5	0	0	0	0	439	510	
6	0	0	0	0	453	516	
7	0	0	0	0	483	514	
8	0	0	0	0	505	508	
9	0	0	0	0	504	504	
10	0	0	0	0	579	510	
11	0	0	0	0	610	513	
12	0	0	0	0	574	512	
13	0	0	0	0	514	509	
14	0	0	0	0	476	509	
15	0	0	0	0	463	512	
0	0	0	0	0	433	512	
1	0	0	0	0	454	515	
2	0	0	0	0	478	512	
3	0	0	0	0	496	513	
4	0	0	0	0	545	513	
5	0	0	0	0	551	517	
6	0	0	0	0	510	511	
7	0	0	0	0	487	508	
8	0	0	0	0	498	508	
9	0	0	0	0	502	509	
10	0	0	0	0	484	510	
11	0	0	0	0	496	512	
12	0	0	0	0	526	512	
13	0	0	0	0	510	517	
14	0	0	0	0	508	518	
15	0	0	0	0	502	514	
0	0	0	0	0	507	510	
1	0	0	0	0	532	509	
2	0	0	0	0	531	508	
3	0	0	0	0	536	511	
4	0	0	0	0	513	509	
5	0	0	0	0	491	514	
6	0	0	0	0	487	513	
7	0	0	0	0	461	511	
8	0	0	0	0	484	516	
9	0	0	0	0	491	515	
10	0	0	0	0	523	513	
11	0	0	0	0	533	512	
12	0	0	0	0	527	507	
13	0	0	0	0	497	507	
14	0	0	0	0	467	510	
15	0	0	0	0	466	511	
0	0	0	0	0	491	510	
1	0	0	0	0	506	510	
2	0	0	0	0	503	513	
3	0	0	0	0	515	515	
4	0	0	0	0	509	518	
5	0	0	0	0	508	513	
6	0	0	0	0	505	511	
7	0	0	0	0	516	511	
8	0	0	0	0	563	511	
9	0	0	0	0	568	510	
10	0	0	0	0	520	509	
11	0	0	0	0	496	513	
12	0	0	0	0	486	509	
13	0	0	0	0	463	508	
14	0	0	0	0	436	511	
15	0	0	0	0	476	511	
0	0	0	0	0	515	513	
1	0	0	0	0	526	512	
2	0	0	0	0	549	514	
3	0	0	0	0	529	513	
4	0	0	0	0	498	513	
5	0	0	0	0	492	513	
6	0	0	0	0	498	518	
7	0	0	0	0	490	515	
8	0	0	0	0	482	510	
9	0	0	0	0	510	506	
10	0	0	0	0	482	508	
11	0	0	0	0	495	510	
12	0	0	0	0	511	513	
13	0	0	0	0	553	513	
14	0	0	0	0	572	511	
15	0	0	0	0	547	511	
0	0	0	0	0	516	512	
1	0	0	0	0	481	513	
2	0	0	0	0	460	512	
3	0	0	0	0	454	514	
4	0	0	0	0	488	512	
5	0	0	0	0	517	512	
6	0	0	0	0	531	513	
7	0	0	0	0	527	512	
8	0	0	0	0	495	509	
9	0	0	0	0	473	512	
10	0	0	0	0	463	511	
11	0	0	0	0	465	513	
12	0	0	0	0	488	518	
13	0	0	0	0	518	516	
14	0	0	0	0	539	512	
15	0	0	0	0	539	513	
0	0	0	0	0	528	511	
1	0	0	0	0	513	511	
2	0	0	0	0	511	510	
3	0	0	0	0	499	512	
4	0	0	0	0	510	513	
5	0	0	0	0	508	510	
6	0	0	0	0	514	508	
7	0	0	0	0	518	512	
8	0	0	0	0	511	513	
9	0	0	0	0	517	511	
10	0	0	0	0	533	511	
11	0	0	0	0	528	511	
12	0	0	0	0	509	511	
13	0	0	0	0	500	510	
14	0	0	0	0	492	512	
15	0	0	0	0	486	512	
0	0	0	0	0	480	512	
1	0	0	0	0	474	513	
2	0	0	0	0	469	512	
3	0	0	0	0	484	511	
4	0	0	0	0	463	511	
5	0	0	0	0	455	515	
6	0	0	0	0	480	513	
7	0	0	0	0	516	514	
8	0	0	0	0	550	511	
9	0	0	0	0	545	518	
10	0	0	0	0	529	516	
11	0	0	0	0	532	512	
12	0	0	0	0	556	507	
13	0	0	0	0	536	505	
14	0	0	0	0	536	508	
15	0	0	0	0	513	511	
0	0	0	0	0	483	516	
1	0	0	0	0	443	519	
2	0	0	0	0	436	515	
3	0	0	0	0	446	511	
4	0	0	0	0	472	508	
5	0	0	0	0	535	508	
6	0	0	0	0	550	507	
7	0	0	0	0	561	512	
8	0	0	0	0	551	510	
9	0	0	0	0	538	510	
10	0	0	0	0	516	513	
11	0	0	0	0	510	511	
12	0	0	0	0	499	514	
13	0	0	0	0	473	517	
14	0	0	0	0	489	513	
15	0	0	0	0	489	507	
0	0	0	0	0	484	511	
1	0	0	0	0	502	512	
2	0	0	0	0	504	513	
3	0	0	0	0	526	510	
4	0	0	0	0	547	512	
5	0	0	0	0	536	517	
6	0	0	0	0	506	512	
7	0	0	0	0	500	511	
8	0	0	0	0	485	513	
9	0	0	0	0	454	510	
10	0	0	0	0	472	510	
11	0	0	0	0	491	507	
12	0	0	0	0	495	509	
13	0	0	0	0	490	512	
14	0	0	0	0	501	514	
15	0	0	0	0	508	512	
0	0	0	0	0	514	511	
1	0	0	0	0	516	513	
2	0	0	0	0	508	512	
3	0	0	0	0	508	509	
4	0	0	0	0	528	513	
5	0	0	0	0	560	515	
6	0	0	0	0	543	515	
7	0	0	0	0	511	515	
8	0	0	0	0	501	513	
9	0	0	0	0	491	512	
10	0	0	0	0	469	513	
11	0	0	0	0	474	511	
12	0	0	0	0	540	510	
13	0	0	0	0	556	509	
14	0	0	0	0	539	511	
15	0	0	0	0	508	513	
0	0	0	0	0	456	512	
1	0	0	0	0	425	509	
2	0	0	0	0	429	505	
3	0	0	0	0	456	508	
4	0	0	0	0	504	512	
5	0	0	0	0	534	514	
6	0	0	0	0	535	512	
7	0	0	0	0	527	514	
8	0	0	0	0	542	515	
9	0	0	0	0	551	516	
10	0	0	0	0	543	518	
11	0	0	0	0	503	517	
12	0	0	0	0	503	513	
13	0	0	0	0	539	514	
14	0	0	0	0	501	504	
15	0	0	0	0	497	502	
0	0	0	0	0	513	510	
1	0	0	0	0	513	512	
2	0	0	0	0	468	503	
3	0	0	0	0	467	508	
4	0	0	0	0	488	510	
5	0	0	0	0	487	511	
6	0	0	0	0	476	511	
7	0	0	0	0	490	514	
8	0	0	0	0	482	515	
9	0	0	0	0	484	517	
10	0	0	0	0	514	515	
11	0	0	0	0	563	517	
12	0	0	0	0	569	514	
13	0	0	0	0	536	510	
14	0	0	0	0	502	508	
15	0	0	0	0	500	510	
0	0	0	0	0	491	511	
1	0	0	0	0	466	512	
2	0	0	0	0	504	515	
3	0	0	0	0	558	515	
4	0	0	0	0	531	508	
5	0	0	0	0	487	514	
6	0	0	0	0	513	516	
7	0	0	0	0	527	511	
8	0	0	0	0	475	511	
9	0	0	0	0	457	511	
10	0	0	0	0	497	516	
11	0	0	0	0	508	514	
12	0	0	0	0	493	508	
13	0	0	0	0	516	505	
14	0	0	0	0	547	507	
15	0	0	0	0	515	508	
0	0	0	0	0	467	511	
1	0	0	0	0	464	512	
2	0	0	0	0	467	513	
3	0	0	0	0	456	512	
4	0	0	0	0	483	513	
5	0	0	0	0	518	512	
6	0	0	0	0	523	516	
7	0	0	0	0	523	515	
8	0	0	0	0	522	515	
9	0	0	0	0	510	516	
10	0	0	0	0	504	518	
11	0	0	0	0	512	518	
12	0	0	0	0	560	518	
13	0	0	0	0	578	513	
14	0	0	0	0	570	505	
15	0	0	0	0	539	499	
0	0	0	0	0	511	502	
1	0	0	0	0	478	504	
2	0	0	0	0	432	507	
3	0	0	0	0	453	513	
4	0	0	0	0	472	511	
5	0	0	0	0	492	514	
6	0	0	0	0	507	512	
7	0	0	0	0	519	515	
8	0	0	0	0	516	513	
9	0	0	0	0	500	514	
10	0	0	0	0	504	513	
11	0	0	0	0	503	515	
12	0	0	0	0	510	514	
13	0	0	0	0	514	508	
14	0	0	0	0	538	513	
15	0	0	0	0	527	513	
0	0	0	0	0	491	518	
1	0	0	0	0	483	520	
2	0	0	0	0	502	515	
3	0	0	0	0	490	515	
4	0	0	0	0	473	510	
5	0	0	0	0	499	505	
6	0	0	0	0	512	502	
7	0	0	0	0	505	507	
8	0	0	0	0	474	510	
9	0	0	0	0	489	510	
10	0	0	0	0	515	515	
11	0	0	0	0	526	513	
12	0	0	0	0	525	513	
13	0	0	0	0	519	513	
14	0	0	0	0	515	514	
15	0	0	0	0	517	510	
0	0	0	0	0	527	510	
1	0	0	0	0	545	512	
2	0	0	0	0	542	514	
3	0	0	0	0	519	517	
4	0	0	0	0	505	517	
5	0	0	0	0	488	512	
6	0	0	0	0	512	513	
7	0	0	0	0	474	508	
8	0	0	0	0	443	508	
9	0	0	0	0	457	509	
10	0	0	0	0	493	510	
11	0	0	0	0	519	511	
12	0	0	0	0	512	516	
13	0	0	0	0	495	515	
14	0	0	0	0	475	511	
15	0	0	0	0	487	512	
0	0	0	0	0	487	510	
1	0	0	0	0	524	508	
2	0	0	0	0	551	511	
3	0	0	0	0	547	513	
4	0	0	0	0	511	513	
5	0	0	0	0	488	513	
6	0	0	0	0	473	511	
7	0	0	0	0	472	512	
8	0	0	0	0	485	514	
9	0	0	0	0	512	512	
10	0	0	0	0	526	513	
11	0	0	0	0	519	510	
12	0	0	0	0	517	511	
13	0	0	0	0	553	511	
14	0	0	0	0	553	512	
15	0	0	0	0	536	513	
0	0	0	0	0	507	513	
1	0	0	0	0	495	513	
2	0	0	0	0	491	511	
3	0	0	0	0	484	511	
4	0	0	0	0	478	509	
5	0	0	0	0	495	515	
6	0	0	0	0	495	514	
7	0	0	0	0	490	510	
8	0	0	0	0	493	511	
9	0	0	0	0	487	513	
10	0	0	0	0	500	514	
11	0	0	0	0	516	513	
12	0	0	0	0	530	515	
13	0	0	0	0	543	511	
14	0	0	0	0	530	508	
15	0	0	0	0	545	511	
0	0	0	0	0	541	511	
1	0	0	0	0	515	515	
2	0	0	0	0	471	513	
3	0	0	0	0	468	511	
4	0	0	0	0	457	508	
5	0	0	0	0	441	509	
6	0	0	0	0	500	508	
7	0	0	0	0	518	505	
8	0	0	0	0	496	508	
9	0	0	0	0	485	511	
10	0	0	0	0	497	514	
11	0	0	0	0	498	512	
12	0	0	0	0	508	511	
13	0	0	0	0	519	512	
14	0	0	0	0	527	514	
15	0	0	0	0	519	515	
0	0	0	0	0	514	516	
1	0	0	0	0	506	514	
2	0	0	0	0	511	516	
3	0	0	0	0	509	516	
4	0	0	0	0	498	516	
5	0	0	0	0	516	513	
6	0	0	0	0	544	512	
7	0	0	0	0	538	509	
8	0	0	0	0	512	507	
9	0	0	0	0	469	504	
10	0	0	0	0	460	506	
11	0	0	0	0	470	508	
12	0	0	0	0	493	514	
13	0	0	0	0	501	514	
14	0	0	0	0	507	516	
15	0	0	0	0	508	519	
0	0	0	0	0	558	513	
1	0	0	0	0	551	509	
2	0	0	0	0	515	511	
3	0	0	0	0	524	511	
4	0	0	0	0	543	512	
5	0	0	0	0	529	511	
6	0	0	0	0	496	512	
7	0	0	0	0	494	513	
8	0	0	0	0	515	513	
9	0	0	0	0	497	517	
10	0	0	0	0	468	514	
11	0	0	0	0	466	508	
12	0	0	0	0	468	504	
13	0	0	0	0	450	507	
14	0	0	0	0	454	511	
15	0	0	0	0	472	510	
0	0	0	0	0	502	509	
1	0	0	0	0	512	512	
2	0	0	0	0	527	515	
3	0	0	0	0	556	511	
4	0	0	0	0	555	511	
5	0	0	0	0	561	512	
6	0	0	0	0	536	512	
7	0	0	0	0	494	515	
8	0	0	0	0	468	516	
9	0	0	0	0	459	521	
10	0	0	0	0	508	519	
11	0	0	0	0	520	510	
12	0	0	0	0	525	508	
13	0	0	0	0	516	505	
14	0	0	0	0	480	503	
15	0	0	0	0	448	508	
0	0	0	0	0	473	512	
1	0	0	0	0	501	515	
2	0	0	0	0	502	512	
3	0	0	0	0	518	515	
4	0	0	0	0	540	515	
5	0	0	0	0	547	512	
6	0	0	0	0	540	510	
7	0	0	0	0	507	510	
8	0	0	0	0	480	510	
9	0	0	0	0	491	513	
10	0	0	0	0	496	511	
11	0	0	0	0	482	514	
12	0	0	0	0	516	517	
13	0	0	0	0	551	514	
14	0	0	0	0	553	513	
15	0	0	0	0	523	512	
0	0	0	0	0	493	510	
1	0	0	0	0	479	508	
2	0	0	0	0	454	508	
3	0	0	0	0	471	514	
4	0	0	0	0	499	513	
5	0	0	0	0	512	510	
6	0	0	0	0	519	509	
7	0	0	0	0	513	513	
8	0	0	0	0	504	512	
9	0	0	0	0	506	510	
10	0	0	0	0	488	511	
11	0	0	0	0	483	513	
12	0	0	0	0	496	513	
13	0	0	0	0	515	516	
14	0	0	0	0	531	515	
15	0	0	0	0	540	513	
0	0	0	0	0	542	508	
1	0	0	0	0	549	506	
2	0	0	0	0	546	509	
3	0	0	0	0	533	509	
4	0	0	0	0	512	512	
5	0	0	0	0	486	514	
6	0	0	0	0	459	516	
7	0	0	0	0	448	515	
8	0	0	0	0	476	512	
9	0	0	0	0	513	515	
10	0	0	0	0	499	512	
11	0	0	0	0	485	512	
12	0	0	0	0	487	513	
13	0	0	0	0	512	510	
14	0	0	0	0	531	506	
15	0	0	0	0	527	504	
0	0	0	0	0	543	510	
1	0	0	0	0	520	511	
2	0	0	0	0	462	513	
3	0	0	0	0	395	515	
4	0	0	0	0	419	515	
5	0	0	0	0	502	513	
6	0	0	0	0	515	515	
7	0	0	0	0	515	509	
8	0	0	0	0	513	507	
9	0	0	0	0	536	510	
10	0	0	0	0	524	507	
11	0	0	0	0	553	508	
12	0	0	0	0	574	510	
13	0	0	0	0	545	516	
14	0	0	0	0	508	513	
15	0	0	0	0	480	513	
0	0	0	0	0	481	513	
1	0	0	0	0	472	512	
2	0	0	0	0	473	510	
3	0	0	0	0	497	511	
4	0	0	0	0	527	512	
5	0	0	0	0	532	513	
6	0	0	0	0	523	513	
7	0	0	0	0	498	514	
8	0	0	0	0	488	511	
9	0	0	0	0	493	517	
10	0	0	0	0	492	514	
11	0	0	0	0	512	508	
12	0	0	0	0	505	510	
13	0	0	0	0	527	506	
14	0	0	0	0	539	510	
15	0	0	0	0	518	512	
0	0	0	0	0	495	509	
1	0	0	0	0	489	508	
2	0	0	0	0	509	510	
3	0	0	0	0	502	515	
4	0	0	0	0	489	512	
5	0	0	0	0	489	512	
6	0	0	0	0	497	511	
7	0	0	0	0	503	514	
8	0	0	0	0	500	515	
9	0	0	0	0	512	512	
10	0	0	0	0	521	511	
11	0	0	0	0	521	512	
12	0	0	0	0	508	511	
13	0	0	0	0	503	510	
14	0	0	0	0	494	512	
15	0	0	0	0	487	513	
0	0	0	0	0	476	514	
1	0	0	0	0	484	514	
2	0	0	0	0	498	511	
3	0	0	0	0	508	511	
4	0	0	0	0	515	513	
5	0	0	0	0	508	512	
6	0	0	0	0	502	511	
7	0	0	0	0	533	512	
8	0	0	0	0	569	515	
9	0	0	0	0	536	511	
10	0	0	0	0	499	511	
11	0	0	0	0	496	510	
12	0	0	0	0	508	508	
13	0	0	0	0	490	510	
14	0	0	0	0	481	512	
15	0	0	0	0	487	512	
0	0	0	0	0	490	512	
1	0	0	0	0	500	513	
2	0	0	0	0	553	512	
3	0	0	0	0	570	514	
4	0	0	0	0	550	512	
5	0	0	0	0	525	510	
6	0	0	0	0	512	510	
7	0	0	0	0	484	511	
8	0	0	0	0	442	516	
9	0	0	0	0	430	515	
10	0	0	0	0	466	515	
11	0	0	0	0	496	514	
12	0	0	0	0	495	512	
13	0	0	0	0	478	509	
14	0	0	0	0	483	507	
15	0	0	0	0	492	510	
0	0	0	0	0	502	513	
1	0	0	0	0	519	512	
2	0	0	0	0	525	513	
3	0	0	0	0	526	510	
4	0	0	0	0	526	512	
5	0	0	0	0	504	512	
6	0	0	0	0	494	510	
7	0	0	0	0	487	510	
8	0	0	0	0	487	515	
9	0	0	0	0	528	516	
10	0	0	0	0	558	517	
11	0	0	0	0	548	512	
12	0	0	0	0	539	510	
13	0	0	0	0	524	512	
14	0	0	0	0	502	513	
15	0	0	0	0	480	510	
0	0	0	0	0	479	508	
1	0	0	0	0	491	510	
2	0	0	0	0	497	513	
3	0	0	0	0	500	513	
4	0	0	0	0	511	511	
5	0	0	0	0	512	510	
6	0	0	0	0	514	509	
7	0	0	0	0	505	510	
8	0	0	0	0	507	511	
9	0	0	0	0	514	511	
10	0	0	0	0	532	515	
11	0	0	0	0	528	515	
12	0	0	0	0	508	512	
13	0	0	0	0	502	513	
14	0	0	0	0	483	514	
15	0	0	0	0	465	513	
0	0	0	0	0	469	511	
1	0	0	0	0	483	513	
2	0	0	0	0	514	512	
3	0	0	0	0	531	512	
4	0	0	0	0	527	512	
5	0	0	0	0	514	511	
6	0	0	0	0	500	512	
7	0	0	0	0	491	512	
8	0	0	0	0	487	511	
9	0	0	0	0	491	511	
10	0	0	0	0	504	510	
11	0	0	0	0	507	512	
12	0	0	0	0	524	515	
13	0	0	0	0	521	514	
14	0	0	0	0	494	511	
15	0	0	0	0	484	511	
0	0	0	0	0	503	511	
1	0	0	0	0	511	509	
2	0	0	0	0	503	508	
3	0	0	0	0	503	508	
4	0	0	0	0	502	512	
5	0	0	0	0	511	513	
6	0	0	0	0	513	513	
7	0	0	0	0	503	512	
8	0	0	0	0	509	515	
9	0	0	0	0	515	511	
10	0	0	0	0	504	510	
11	0	0	0	0	504	514	
12	0	0	0	0	510	515	
13	0	0	0	0	490	514	
14	0	0	0	0	487	511	
15	0	0	0	0	522	513	
0	0	0	0	0	543	511	
1	0	0	0	0	543	508	
2	0	0	0	0	529	508	
3	0	0	0	0	515	509	
4	0	0	0	0	505	513	
5	0	0	0	0	500	516	
6	0	0	0	0	494	513	
7	0	0	0	0	491	511	
8	0	0	0	0	493	510	
9	0	0	0	0	497	512	
10	0	0	0	0	505	512	
11	0	0	0	0	531	511	
12	0	0	0	0	544	511	
13	0	0	0	0	497	513	
14	0	0	0	0	454	513	
15	0	0	0	0	448	512	
0	0	0	0	0	457	510	
1	0	0	0	0	464	511	
2	0	0	0	0	480	510	
3	0	0	0	0	502	509	
4	0	0	0	0	512	513	
5	0	0	0	0	523	515	
6	0	0	0	0	520	512	
7	0	0	0	0	529	510	
8	0	0	0	0	533	511	
9	0	0	0	0	533	511	
10	0	0	0	0	520	513	
11	0	0	0	0	510	511	
12	0	0	0	0	508	510	
13	0	0	0	0	509	513	
14	0	0	0	0	495	512	
15	0	0	0	0	505	514	
0	0	0	0	0	513	511	
1	0	0	0	0	514	515	
2	0	0	0	0	524	515	
3	0	0	0	0	528	511	
4	0	0	0	0	520	512	
5	0	0	0	0	494	515	
6	0	0	0	0	479	511	
7	0	0	0	0	473	511	
8	0	0	0	0	465	509	
9	0	0	0	0	479	513	
10	0	0	0	0	508	510	
11	0	0	0	0	527	512	
12	0	0	0	0	524	508	
13	0	0	0	0	516	511	
14	0	0	0	0	507	510	
15	0	0	0	0	499	511	
0	0	0	0	0	489	511	
1	0	0	0	0	494	513	
2	0	0	0	0	512	516	
3	0	0	0	0	540	516	
4	0	0	0	0	548	512	
5	0	0	0	0	532	508	
6	0	0	0	0	507	508	
7	0	0	0	0	486	513	
8	0	0	0	0	492	510	
9	0	0	0	0	485	513	
10	0	0	0	0	481	512	
11	0	0	0	0	493	512	
12	0	0	0	0	514	514	
13	0	0	0	0	518	513	
14	0	0	0	0	504	515	
15	0	0	0	0	480	512	
0	0	0	0	0	488	513	
1	0	0	0	0	500	512	
2	0	0	0	0	511	512	
3	0	0	0	0	507	511	
4	0	0	0	0	504	509	
5	0	0	0	0	527	510	
6	0	0	0	0	518	512	
7	0	0	0	0	511	511	
8	0	0	0	0	511	511	
9	0	0	0	0	518	512	
10	0	0	0	0	536	510	
11	0	0	0	0	529	511	
12	0	0	0	0	511	513	
13	0	0	0	0	489	516	
14	0	0	0	0	518	514	
15	0	0	0	0	531	512	
0	0	0	0	0	534	512	
1	0	0	0	0	532	509	
2	0	0	0	0	503	508	
3	0	0	0	0	463	508	
4	0	0	0	0	412	508	
5	0	0	0	0	396	511	
6	0	0	0	0	427	511	
7	0	0	0	0	470	510	
8	0	0	0	0	510	512	
9	0	0	0	0	537	512	
10	0	0	0	0	533	512	
11	0	0	0	0	527	513	
12	0	0	0	0	527	512	
13	0	0	0	0	521	515	
14	0	0	0	0	517	513	
15	0	0	0	0	512	513	
0	0	0	0	0	512	513	
1	0	0	0	0	517	515	
2	0	0	0	0	512	514	
3	0	0	0	0	526	512	
4	0	0	0	0	532	511	
5	0	0	0	0	525	511	
6	0	0	0	0	508	515	
7	0	0	0	0	497	511	
8	0	0	0	0	489	511	
9	0	0	0	0	486	512	
10	0	0	0	0	472	508	
11	0	0	0	0	479	510	
12	0	0	0	0	493	507	
13	0	0	0	0	497	509	
14	0	0	0	0	517	511	
15	0	0	0	0	524	515	
0	0	0	0	0	545	518	
1	0	0	0	0	547	513	
2	0	0	0	0	533	510	
3	0	0	0	0	515	509	
4	0	0	0	0	498	511	
5	0	0	0	0	486	512	
6	0	0	0	0	473	511	
7	0	0	0	0	483	513	
8	0	0	0	0	484	510	
9	0	0	0	0	498	510	
10	0	0	0	0	520	513	
11	0	0	0	0	526	512	
12	0	0	0	0	524	512	
13	0	0	0	0	504	512	
14	0	0	0	0	499	511	
15	0	0	0	0	486	513	
0	0	0	0	0	511	512	
1	0	0	0	0	516	511	
2	0	0	0	0	503	508	
3	0	0	0	0	504	510	
4	0	0	0	0	503	512	
5	0	0	0	0	495	511	
6	0	0	0	0	492	513	
7	0	0	0	0	500	512	
8	0	0	0	0	509	513	
9	0	0	0	0	509	511	
10	0	0	0	0	501	513	
11	0	0	0	0	506	515	
12	0	0	0	0	521	515	
13	0	0	0	0	524	512	
14	0	0	0	0	518	510	
15	0	0	0	0	505	510	
0	0	0	0	0	501	510	
1	0	0	0	0	497	512	
2	0	0	0	0	514	511	
3	0	0	0	0	526	512	
4	0	0	0	0	541	513	
5	0	0	0	0	543	511	
6	0	0	0	0	501	510	
7	0	0	0	0	457	510	
8	0	0	0	0	434	512	
9	0	0	0	0	447	515	
10	0	0	0	0	467	514	
11	0	0	0	0	479	515	
12	0	0	0	0	524	513	
13	0	0	0	0	559	511	
14	0	0	0	0	554	510	
15	0	0	0	0	535	512	
0	0	0	0	0	509	511	
1	0	0	0	0	494	508	
2	0	0	0	0	472	509	
3	0	0	0	0	474	511	
4	0	0	0	0	495	513	
5	0	0	0	0	509	514	
6	0	0	0	0	528	515	
7	0	0	0	0	540	514	
8	0	0	0	0	540	513	
9	0	0	0	0	517	513	
10	0	0	0	0	499	514	
11	0	0	0	0	510	511	
12	0	0	0	0	489	507	
13	0	0	0	0	479	510	
14	0	0	0	0	477	513	
15	0	0	0	0	483	510	
0	0	0	0	0	490	511	
1	0	0	0	0	490	512	
2	0	0	0	0	499	510	
3	0	0	0	0	505	511	
4	0	0	0	0	510	510	
5	0	0	0	0	505	513	
6	0	0	0	0	508	513	
7	0	0	0	0	522	512	
8	0	0	0	0	532	511	
9	0	0	0	0	527	511	
10	0	0	0	0	525	512	
11	0	0	0	0	526	511	
12	0	0	0	0	531	512	
13	0	0	0	0	525	510	
14	0	0	0	0	511	511	
15	0	0	0	0	495	511	
0	0	0	0	0	495	513	
1	0	0	0	0	484	512	
2	0	0	0	0	489	511	
3	0	0	0	0	500	515	
4	0	0	0	0	507	513	
5	0	0	0	0	503	511	
6	0	0	0	0	499	512	
7	0	0	0	0	510	511	
8	0	0	0	0	516	514	
9	0	0	0	0	506	514	
10	0	0	0	0	495	513	
11	0	0	0	0	482	511	
12	0	0	0	0	481	512	
13	0	0	0	0	490	513	
14	0	0	0	0	492	509	
15	0	0	0	0	512	511	
0	0	0	0	0	521	509	
1	0	0	0	0	517	508	
2	0	0	0	0	519	511	
3	0	0	0	0	513	511	
4	0	0	0	0	510	513	
5	0	0	0	0	506	512	
6	0	0	0	0	501	511	
7	0	0	0	0	499	514	
8	0	0	0	0	498	515	
9	0	0	0	0	502	511	
10	0	0	0	0	508	512	
11	0	0	0	0	509	513	
12	0	0	0	0	514	512	
13	0	0	0	0	511	510	
14	0	0	0	0	516	510	
15	0	0	0	0	527	511	
0	0	0	0	0	524	508	
1	0	0	0	0	514	511	
2	0	0	0	0	499	511	
3	0	0	0	0	490	511	
4	0	0	0	0	480	514	
5	0	0	0	0	475	514	
6	0	0	0	0	483	512	
7	0	0	0	0	502	511	
8	0	0	0	0	508	513	
9	0	0	0	0	506	513	
10	0	0	0	0	502	510	
11	0	0	0	0	506	510	
12	0	0	0	0	529	511	
13	0	0	0	0	537	513	
14	0	0	0	0	536	514	
15	0	0	0	0	532	511	
0	0	0	0	0	524	513	
1	0	0	0	0	510	511	
2	0	0	0	0	487	511	
3	0	0	0	0	472	515	
4	0	0	0	0	461	514	
5	0	0	0	0	468	510	
6	0	0	0	0	476	512	
7	0	0	0	0	486	510	
8	0	0	0	0	497	510	
9	0	0	0	0	512	512	
10	0	0	0	0	524	512	
11	0	0	0	0	517	511	
12	0	0	0	0	507	511	
13	0	0	0	0	503	513	
14	0	0	0	0	497	514	
15	0	0	0	0	499	512	
0	0	0	0	0	510	512	
1	0	0	0	0	516	510	
2	0	0	0	0	530	512	
3	0	0	0	0	526	512	
4	0	0	0	0	521	511	
5	0	0	0	0	502	511	
6	0	0	0	0	499	509	
7	0	0	0	0	494	515	
8	0	0	0	0	507	515	
9	0	0	0	0	527	513	
10	0	0	0	0	528	508	
11	0	0	0	0	524	508	
12	0	0	0	0	510	511	
13	0	0	0	0	498	513	
14	0	0	0	0	499	511	
15	0	0	0	0	501	512	
0	0	0	0	0	499	511	
1	0	0	0	0	502	513	
2	0	0	0	0	505	513	
3	0	0	0	0	506	510	
4	0	0	0	0	504	510	
5	0	0	0	0	509	510	
6	0	0	0	0	508	510	
7	0	0	0	0	523	510	
8	0	0	0	0	519	515	
9	0	0	0	0	500	512	
10	0	0	0	0	476	515	
11	0	0	0	0	474	513	
12	0	0	0	0	475	512	
13	0	0	0	0	478	511	
14	0	0	0	0	487	512	
15	0	0	0	0	503	513	
0	0	0	0	0	521	510	
1	0	0	0	0	515	510	
2	0	0	0	0	504	511	
3	0	0	0	0	510	511	
4	0	0	0	0	524	513	
5	0	0	0	0	510	512	
6	0	0	0	0	509	510	
7	0	0	0	0	512	513	
8	0	0	0	0	515	514	
9	0	0	0	0	514	514	
10	0	0	0	0	507	514	
11	0	0	0	0	503	511	
12	0	0	0	0	505	512	
13	0	0	0	0	515	513	
14	0	0	0	0	515	510	
15	0	0	0	0	507	510	
0	0	0	0	0	501	512	
1	0	0	0	0	499	513	
2	0	0	0	0	491	513	
3	0	0	0	0	489	512	
4	0	0	0	0	490	512	
5	0	0	0	0	503	511	
6	0	0	0	0	514	510	
7	0	0	0	0	512	511	
8	0	0	0	0	514	513	
9	0	0	0	0	509	511	
10	0	0	0	0	494	512	
11	0	0	0	0	495	514	
12	0	0	0	0	504	514	
13	0	0	0	0	508	514	
14	0	0	0	0	513	512	
15	0	0	0	0	518	510	
0	0	0	0	0	508	511	
1	0	0	0	0	503	510	
2	0	0	0	0	499	512	
3	0	0	0	0	499	513	
4	0	0	0	0	500	512	
5	0	0	0	0	512	511	
6	0	0	0	0	534	511	
7	0	0	0	0	540	510	
8	0	0	0	0	524	512	
9	0	0	0	0	503	513	
10	0	0	0	0	481	513	
11	0	0	0	0	455	515	
12	0	0	0	0	448	511	
13	0	0	0	0	473	510	
14	0	0	0	0	512	509	
15	0	0	0	0	542	511	
0	0	0	0	0	548	515	
1	0	0	0	0	533	512	
2	0	0	0	0	505	508	
3	0	0	0	0	512	510	
4	0	0	0	0	504	512	
5	0	0	0	0	496	512	
6	0	0	0	0	498	512	
7	0	0	0	0	500	511	
8	0	0	0	0	502	512	
9	0	0	0	0	509	512	
10	0	0	0	0	511	512	
11	0	0	0	0	525	511	
12	0	0	0	0	524	510	
13	0	0	0	0	509	514	
14	0	0	0	0	495	515	
15	0	0	0	0	484	512	
0	0	0	0	0	480	511	
1	0	0	0	0	485	512	
2	0	0	0	0	486	511	
3	0	0	0	0	496	511	
4	0	0	0	0	504	513	
5	0	0	0	0	511	513	
6	0	0	0	0	512	511	
7	0	0	0	0	513	510	
8	0	0	0	0	520	510	
9	0	0	0	0	523	510	
10	0	0	0	0	519	511	
11	0	0	0	0	513	512	
12	0	0	0	0	526	514	
13	0	0	0	0	523	513	
14	0	0	0	0	506	514	
15	0	0	0	0	495	513	
0	0	0	0	0	480	512	
1	0	0	0	0	492	512	
2	0	0	0	0	494	512	
3	0	0	0	0	508	512	
4	0	0	0	0	508	507	
5	0	0	0	0	503	505	
6	0	0	0	0	501	510	
7	0	0	0	0	492	515	
8	0	0	0	0	495	512	
9	0	0	0	0	499	515	
10	0	0	0	0	505	513	
11	0	0	0	0	518	511	
12	0	0	0	0	518	513	
13	0	0	0	0	510	512	
14	0	0	0	0	511	514	
15	0	0	0	0	504	516	
0	0	0	0	0	496	514	
1	0	0	0	0	498	514	
2	0	0	0	0	492	510	
3	0	0	0	0	501	509	
4	0	0	0	0	504	513	
5	0	0	0	0	515	510	
6	0	0	0	0	517	510	
7	0	0	0	0	515	508	
8	0	0	0	0	514	511	
9	0	0	0	0	506	510	
10	0	0	0	0	504	512	
11	0	0	0	0	512	512	
12	0	0	0	0	510	512	
13	0	0	0	0	500	513	
14	0	0	0	0	499	513	
15	0	0	0	0	487	514	
0	0	0	0	0	505	515	
1	0	0	0	0	523	510	
2	0	0	0	0	529	511	
3	0	0	0	0	522	511	
4	0	0	0	0	524	511	
5	0	0	0	0	507	513	
6	0	0	0	0	486	512	
7	0	0	0	0	485	515	
8	0	0	0	0	481	513	
9	0	0	0	0	491	513	
10	0	0	0	0	498	510	
11	0	0	0	0	504	509	
12	0	0	0	0	508	510	
13	0	0	0	0	518	513	
14	0	0	0	0	521	513	
15	0	0	0	0	520	511	
0	0	0	0	0	521	511	
1	0	0	0	0	520	513	
2	0	0	0	0	499	513	
3	0	0	0	0	495	513	
4	0	0	0	0	492	512	
5	0	0	0	0	482	512	
6	0	0	0	0	481	514	
7	0	0	0	0	491	512	
8	0	0	0	0	502	511	
9	0	0	0	0	511	511	
10	0	0	0	0	508	510	
11	0	0	0	0	501	512	
12	0	0	0	0	505	511	
13	0	0	0	0	517	512	
14	0	0	0	0	519	511	
15	0	0	0	0	510	511	
0	0	0	0	0	500	509	
1	0	0	0	0	512	512	
2	0	0	0	0	517	510	
3	0	0	0	0	511	511	
4	0	0	0	0	503	512	
5	0	0	0	0	505	513	
6	0	0	0	0	503	512	
7	0	0	0	0	511	513	
8	0	0	0	0	520	511	
9	0	0	0	0	513	512	
10	0	0	0	0	511	512	
11	0	0	0	0	503	512	
12	0	0	0	0	494	510	
13	0	0	0	0	487	512	
14	0	0	0	0	483	512	
15	0	0	0	0	487	512	
0	0	0	0	0	496	515	
1	0	0	0	0	502	515	
2	0	0	0	0	509	510	
3	0	0	0	0	509	511	
4	0	0	0	0	507	511	
5	0	0	0	0	509	509	
6	0	0	0	0	527	510	
7	0	0	0	0	530	510	
8	0	0	0	0	523	512	
9	0	0	0	0	510	510	
10	0	0	0	0	500	513	
11	0	0	0	0	496	512	
12	0	0	0	0	495	511	
13	0	0	0	0	496	512	
14	0	0	0	0	498	512	
15	0	0	0	0	501	513	
0	0	0	0	0	496	511	
1	0	0	0	0	498	514	
2	0	0	0	0	512	515	
3	0	0	0	0	515	513	
4	0	0	0	0	519	512	
5	0	0	0	0	504	508	
6	0	0	0	0	498	510	
7	0	0	0	0	504	511	
8	0	0	0	0	504	510	
9	0	0	0	0	507	512	
10	0	0	0	0	515	512	
11	0	0	0	0	515	513	
12	0	0	0	0	525	513	
13	0	0	0	0	514	514	
14	0	0	0	0	516	512	
15	0	0	0	0	524	512	
0	0	0	0	0	506	513	
1	0	0	0	0	497	515	
2	0	0	0	0	494	510	
3	0	0	0	0	475	509	
4	0	0	0	0	470	508	
5	0	0	0	0	478	510	
6	0	0	0	0	490	510	
7	0	0	0	0	502	511	
8	0	0	0	0	506	511	
9	0	0	0	0	514	513	
10	0	0	0	0	517	512	
11	0	0	0	0	510	514	
12	0	0	0	0	512	512	
13	0	0	0	0	513	512	
14	0	0	0	0	511	511	
15	0	0	0	0	505	514	
0	0	0	0	0	500	511	
1	0	0	0	0	506	513	
2	0	0	0	0	518	513	
3	0	0	0	0	521	514	
4	0	0	0	0	511	515	
5	0	0	0	0	498	511	
6	0	0	0	0	495	512	
7	0	0	0	0	501	514	
8	0	0	0	0	492	514	
9	0	0	0	0	525	510	
10	0	0	0	0	530	505	
11	0	0	0	0	529	506	
12	0	0	0	0	516	508	
13	0	0	0	0	500	513	
14	0	0	0	0	484	512	
15	0	0	0	0	483	512	
0	0	0	0	0	480	510	
1	0	0	0	0	485	512	
2	0	0	0	0	498	515	
3	0	0	0	0	510	513	
4	0	0	0	0	508	512	
5	0	0	0	0	503	512	
6	0	0	0	0	506	512	
7	0	0	0	0	505	513	
8	0	0	0	0	509	510	
9	0	0	0	0	510	512	
10	0	0	0	0	510	512	
11	0	0	0	0	514	514	
12	0	0	0	0	531	511	
13	0	0	0	0	528	512	
14	0	0	0	0	512	513	
15	0	0	0	0	499	514	
0	0	0	0	0	492	512	
1	0	0	0	0	492	510	
2	0	0	0	0	491	509	
3	0	0	0	0	496	510	
4	0	0	0	0	503	511	
5	0	0	0	0	507	513	
6	0	0	0	0	507	509	
7	0	0	0	0	508	510	
8	0	0	0	0	503	512	
9	0	0	0	0	502	511	
10	0	0	0	0	510	512	
11	0	0	0	0	506	510	
12	0	0	0	0	508	512	
13	0	0	0	0	510	511	
14	0	0	0	0	507	512	
15	0	0	0	0	503	513	
0	0	0	0	0	507	513	
1	0	0	0	0	509	513	
2	0	0	0	0	508	512	
3	0	0	0	0	505	513	
4	0	0	0	0	505	512	
5	0	0	0	0	506	512	
6	0	0	0	0	505	510	
7	0	0	0	0	507	511	
8	0	0	0	0	506	511	
9	0	0	0	0	502	511	
10	0	0	0	0	501	511	
11	0	0	0	0	499	510	
12	0	0	0	0	505	513	
13	0	0	0	0	513	514	
14	0	0	0	0	515	513	
15	0	0	0	0	508	513	
0	0	0	0	0	501	512	
1	0	0	0	0	496	510	
2	0	0	0	0	489	510	
3	0	0	0	0	492	512	
4	0	0	0	0	495	511	
5	0	0	0	0	508	513	
6	0	0	0	0	532	514	
7	0	0	0	0	533	511	
8	0	0	0	0	531	509	
9	0	0	0	0	518	511	
10	0	0	0	0	498	511	
11	0	0	0	0	491	513	
12	0	0	0	0	504	516	
13	0	0	0	0	512	513	
14	0	0	0	0	509	512	
15	0	0	0	0	499	513	
0	0	0	0	0	489	511	
1	0	0	0	0	486	508	
2	0	0	0	0	492	510	
3	0	0	0	0	494	514	
4	0	0	0	0	502	514	
5	0	0	0	0	505	512	
6	0	0	0	0	504	509	
7	0	0	0	0	512	511	
8	0	0	0	0	513	513	
9	0	0	0	0	509	511	
10	0	0	0	0	507	515	
11	0	0	0	0	504	513	
12	0	0	0	0	513	515	
13	0	0	0	0	508	515	
14	0	0	0	0	497	515	
15	0	0	0	0	503	513	
0	0	0	0	0	500	512	
1	0	0	0	0	500	510	
2	0	0	0	0	502	510	
3	0	0	0	0	503	508	
4	0	0	0	0	499	508	
5	0	0	0	0	509	510	
6	0	0	0	0	511	511	
7	0	0	0	0	519	510	
8	0	0	0	0	515	508	
9	0	0	0	0	508	510	
10	0	0	0	0	508	512	
11	0	0	0	0	504	514	
12	0	0	0	0	503	513	
13	0	0	0	0	503	513	
14	0	0	0	0	505	512	
15	0	0	0	0	501	513	
0	0	0	0	0	500	512	
1	0	0	0	0	502	512	
2	0	0	0	0	506	516	
3	0	0	0	0	519	514	
4	0	0	0	0	518	513	
5	0	0	0	0	510	510	
6	0	0	0	0	503	512	
7	0	0	0	0	499	512	
8	0	0	0	0	502	510	
9	0	0	0	0	499	511	
10	0	0	0	0	498	512	
11	0	0	0	0	499	512	
12	0	0	0	0	503	512	
13	0	0	0	0	515	510	
14	0	0	0	0	519	513	
15	0	0	0	0	516	515	
0	0	0	0	0	513	514	
1	0	0	0	0	508	511	
2	0	0	0	0	500	509	
3	0	0	0	0	493	509	
4	0	0	0	0	491	508	
5	0	0	0	0	497	511	
6	0	0	0	0	496	509	
7	0	0	0	0	499	510	
8	0	0	0	0	492	513	
9	0	0	0	0	502	512	
10	0	0	0	0	512	512	
11	0	0	0	0	518	512	
12	0	0	0	0	521	513	
13	0	0	0	0	524	513	
14	0	0	0	0	524	510	
15	0	0	0	0	519	511	
0	0	0	0	0	512	511	
1	0	0	0	0	508	512	
2	0	0	0	0	503	511	
3	0	0	0	0	501	513	
4	0	0	0	0	498	511	
5	0	0	0	0	489	513	
6	0	0	0	0	490	513	
7	0	0	0	0	491	513	
8	0	0	0	0	507	511	
9	0	0	0	0	520	511	
10	0	0	0	0	516	512	
11	0	0	0	0	506	511	
12	0	0	0	0	500	513	
13	0	0	0	0	492	514	
14	0	0	0	0	488	513	
15	0	0	0	0	487	510	
0	0	0	0	0	490	511	
1	0	0	0	0	502	508	
2	0	0	0	0	510	509	
3	0	0	0	0	515	510	
4	0	0	0	0	515	513	
5	0	0	0	0	513	514	
6	0	0	0	0	513	514	
7	0	0	0	0	508	513	
8	0	0	0	0	507	511	
9	0	0	0	0	504	511	
10	0	0	0	0	504	510	
11	0	0	0	0	507	511	
12	0	0	0	0	504	512	
13	0	0	0	0	506	512	
14	0	0	0	0	502	513	
15	0	0	0	0	506	512	
0	0	0	0	0	510	513	
1	0	0	0	0	506	512	
2	0	0	0	0	506	513	
3	0	0	0	0	506	513	
4	0	0	0	0	505	512	
5	0	0	0	0	509	513	
6	0	0	0	0	512	512	
7	0	0	0	0	508	511	
8	0	0	0	0	505	510	
9	0	0	0	0	504	512	
10	0	0	0	0	504	511	
11	0	0	0	0	505	511	
12	0	0	0	0	504	513	
13	0	0	0	0	509	513	
14	0	0	0	0	506	512	
15	0	0	0	0	512	514	
0	0	0	0	0	529	511	
1	0	0	0	0	525	515	
2	0	0	0	0	512	511	
3	0	0	0	0	490	512	
4	0	0	0	0	487	512	
5	0	0	0	0	497	511	
6	0	0	0	0	488	509	
7	0	0	0	0	481	511	
8	0	0	0	0	492	511	
9	0	0	0	0	501	509	
10	0	0	0	0	510	510	
11	0	0	0	0	511	513	
12	0	0	0	0	507	513	
13	0	0	0	0	511	513	
14	0	0	0	0	512	513	
15	0	0	0	0	512	510	
0	0	0	0	0	512	512	
1	0	0	0	0	508	510	
2	0	0	0	0	502	511	
3	0	0	0	0	500	511	
4	0	0	0	0	499	511	
5	0	0	0	0	502	512	
6	0	0	0	0	507	510	
7	0	0	0	0	508	511	
8	0	0	0	0	503	511	
9	0	0	0	0	502	514	
10	0	0	0	0	508	514	
11	0	0	0	0	509	512	
12	0	0	0	0	509	512	
13	0	0	0	0	508	511	
14	0	0	0	0	507	512	
15	0	0	0	0	504	511	
0	0	0	0	0	505	514	
1	0	0	0	0	503	510	
2	0	0	0	0	507	512	
3	0	0	0	0	507	511	
4	0	0	0	0	504	513	
5	0	0	0	0	509	511	
6	0	0	0	0	506	511	
7	0	0	0	0	503	511	
8	0	0	0	0	497	512	
9	0	0	0	0	500	511	
10	0	0	0	0	505	511	
11	0	0	0	0	504	512	
12	0	0	0	0	502	512	
13	0	0	0	0	512	512	
14	0	0	0	0	518	514	
15	0	0	0	0	515	513	
0	0	0	0	0	512	512	
1	0	0	0	0	505	511	
2	0	0	0	0	502	510	
3	0	0	0	0	503	512	
4	0	0	0	0	502	511	
5	0	0	0	0	505	511	
6	0	0	0	0	504	511	
7	0	0	0	0	509	513	
8	0	0	0	0	511	513	
9	0	0	0	0	512	513	
10	0	0	0	0	505	511	
11	0	0	0	0	500	511	
12	0	0	0	0	500	512	
13	0	0	0	0	505	512	
14	0	0	0	0	503	512	
15	0	0	0	0	502	512	
0	0	0	0	0	512	512	
1	0	0	0	0	515	511	
2	0	0	0	0	512	512	
3	0	0	0	0	499	511	
4	0	0	0	0	487	510	
5	0	0	0	0	497	509	
6	0	0	0	0	501	512	
7	0	0	0	0	500	512	
8	0	0	0	0	505	514	
9	0	0	0	0	509	512	
10	0	0	0	0	506	512	
11	0	0	0	0	506	510	
12	0	0	0	0	508	512	
13	0	0	0	0	508	512	
14	0	0	0	0	506	511	
15	0	0	0	0	506	511	
0	0	0	0	0	505	511	
1	0	0	0	0	504	509	
2	0	0	0	0	506	513	
3	0	0	0	0	506	511	
4	0	0	0	0	504	513	
5	0	0	0	0	505	512	
6	0	0	0	0	505	513	
7	0	0	0	0	510	513	
8	0	0	0	0	512	513	
9	0	0	0	0	507	513	
10	0	0	0	0	505	511	
11	0	0	0	0	505	512	
12	0	0	0	0	507	512	
13	0	0	0	0	506	512	
14	0	0	0	0	504	510	
15	0	0	0	0	504	511	
0	0	0	0	0	501	512	
1	0	0	0	0	505	513	
2	0	0	0	0	505	514	
3	0	0	0	0	505	511	
4	0	0	0	0	505	511	
5	0	0	0	0	504	513	
6	0	0	0	0	504	512	
7	0	0	0	0	505	511	
8	0	0	0	0	503	511	
9	0	0	0	0	505	513	
10	0	0	0	0	505	512	
11	0	0	0	0	508	511	
12	0	0	0	0	506	510	
13	0	0	0	0	508	510	
14	0	0	0	0	505	510	
15	0	0	0	0	504	511	
0	0	0	0	0	504	513	
1	0	0	0	0	503	512	
2	0	0	0	0	503	511	
3	0	0	0	0	509	512	
4	0	0	0	0	515	512	
5	0	0	0	0	512	512	
6	0	0	0	0	505	510	
7	0	0	0	0	499	512	
8	0	0	0	0	499	513	
9	0	0	0	0	509	512	
10	0	0	0	0	510	511	
11	0	0	0	0	503	512	
12	0	0	0	0	509	511	
13	0	0	0	0	507	510	
14	0	0	0	0	499	508	
15	0	0	0	0	499	510	
0	0	0	0	0	496	513	
1	0	0	0	0	498	512	
2	0	0	0	0	503	512	
3	0	0	0	0	500	514	
4	0	0	0	0	504	514	
5	0	0	0	0	506	514	
6	0	0	0	0	506	511	
7	0	0	0	0	503	511	
8	0	0	0	0	500	512	
9	0	0	0	0	500	512	
10	0	0	0	0	503	512	
11	0	0	0	0	520	515	
12	0	0	0	0	515	512	
13	0	0	0	0	514	510	
14	0	0	0	0	513	511	
15	0	0	0	0	511	512	
0	0	0	0	0	508	512	
1	0	0	0	0	501	513	
2	0	0	0	0	497	511	
3	0	0	0	0	504	511	
4	0	0	0	0	512	513	
5	0	0	0	0	508	512	
6	0	0	0	0	504	515	
7	0	0	0	0	499	512	
8	0	0	0	0	506	511	
9	0	0	0	0	509	510	
10	0	0	0	0	510	510	
11	0	0	0	0	505	512	
12	0	0	0	0	506	508	
13	0	0	0	0	506	511	
14	0	0	0	0	507	511	
15	0	0	0	0	505	513	
0	0	0	0	0	504	510	
1	0	0	0	0	501	511	
2	0	0	0	0	504	513	
3	0	0	0	0	501	511	
4	0	0	0	0	501	511	
5	0	0	0	0	501	511	
6	0	0	0	0	498	510	
7	0	0	0	0	503	511	
8	0	0	0	0	510	512	
9	0	0	0	0	516	513	
10	0	0	0	0	513	512	
11	0	0	0	0	509	512	
12	0	0	0	0	505	514	
13	0	0	0	0	504	512	
14	0	0	0	0	504	511	
15	0	0	0	0	504	511	
0	0	0	0	0	505	513	
1	0	0	0	0	503	511	
2	0	0	0	0	507	510	
3	0	0	0	0	509	513	
4	0	0	0	0	508	514	
5	0	0	0	0	508	513	
6	0	0	0	0	504	510	
7	0	0	0	0	502	513	
8	0	0	0	0	504	510	
9	0	0	0	0	507	511	
10	0	0	0	0	510	510	
11	0	0	0	0	504	512	
12	0	0	0	0	502	512	
13	0	0	0	0	504	512	
14	0	0	0	0	503	510	
15	0	0	0	0	507	513	
0	0	0	0	0	504	511	
1	0	0	0	0	505	512	
2	0	0	0	0	509	512	
3	0	0	0	0	506	511	
4	0	0	0	0	504	510	
5	0	0	0	0	507	511	
6	0	0	0	0	509	512	
7	0	0	0	0	505	512	
8	0	0	0	0	503	513	
9	0	0	0	0	503	512	
10	0	0	0	0	497	512	
11	0	0	0	0	492	513	
12	0	0	0	0	503	513	
13	0	0	0	0	504	511	
14	0	0	0	0	503	510	
15	0	0	0	0	512	510	
0	0	0	0	0	524	512	
1	0	0	0	0	528	514	
2	0	0	0	0	527	512	
3	0	0	0	0	516	509	
4	0	0	0	0	504	509	
5	0	0	0	0	494	510	
6	0	0	0	0	486	512	
7	0	0	0	0	486	512	
8	0	0	0	0	492	511	
9	0	0	0	0	489	513	
10	0	0	0	0	498	512	
11	0	0	0	0	515	515	
12	0	0	0	0	517	513	
13	0	0	0	0	508	512	
14	0	0	0	0	502	511	
15	0	0	0	0	500	512	
0	0	0	0	0	512	513	
1	0	0	0	0	513	514	
2	0	0	0	0	510	510	
3	0	0	0	0	502	510	
4	0	0	0	0	507	511	
5	0	0	0	0	510	512	
6	0	0	0	0	512	511	
7	0	0	0	0	515	513	
8	0	0	0	0	509	511	
9	0	0	0	0	499	511	
10	0	0	0	0	499	514	
11	0	0	0	0	501	512	
12	0	0	0	0	497	511	
13	0	0	0	0	496	511	
14	0	0	0	0	503	511	
15	0	0	0	0	505	511	
0	0	0	0	0	505	512	
1	0	0	0	0	509	513	
2	0	0	0	0	515	514	
3	0	0	0	0	513	514	
4	0	0	0	0	511	513	
5	0	0	0	0	499	511	
6	0	0	0	0	502	512	
7	0	0	0	0	502	510	
8	0	0	0	0	497	513	
9	0	0	0	0	496	513	
10	0	0	0	0	496	510	
11	0	0	0	0	496	511	
12	0	0	0	0	502	512	
13	0	0	0	0	509	512	
14	0	0	0	0	512	512	
15	0	0	0	0	509	512	
0	0	0	0	0	507	512	
1	0	0	0	0	510	511	
2	0	0	0	0	510	511	
3	0	0	0	0	511	509	
4	0	0	0	0	511	511	
5	0	0	0	0	511	511	
6	0	0	0	0	517	510	
7	0	0	0	0	510	511	
8	0	0	0	0	502	510	
9	0	0	0	0	499	509	
10	0	0	0	0	493	510	
11	0	0	0	0	492	512	
12	0	0	0	0	499	515	
13	0	0	0	0	513	514	
14	0	0	0	0	522	515	
15	0	0	0	0	522	513	
0	0	0	0	0	515	513	
1	0	0	0	0	511	513	
2	0	0	0	0	508	512	
3	0	0	0	0	507	512	
4	0	0	0	0	492	511	
5	0	0	0	0	486	510	
6	0	0	0	0	484	511	
7	0	0	0	0	492	510	
8	0	0	0	0	504	511	
9	0	0	0	0	504	515	
10	0	0	0	0	506	514	
11	0	0	0	0	505	513	
12	0	0	0	0	514	512	
13	0	0	0	0	515	510	
14	0	0	0	0	505	511	
15	0	0	0	0	502	511	
0	0	0	0	0	510	509	
1	0	0	0	0	513	512	
2	0	0	0	0	517	510	
3	0	0	0	0	515	515	
4	0	0	0	0	507	513	
5	0	0	0	0	504	512	
6	0	0	0	0	502	513	
7	0	0	0	0	493	511	
8	0	0	0	0	490	511	
9	0	0	0	0	508	513	
10	0	0	0	0	510	511	
11	0	0	0	0	508	513	
12	0	0	0	0	495	510	
13	0	0	0	0	487	510	
14	0	0	0	0	508	510	
15	0	0	0	0	506	509	
0	0	0	0	0	495	510	
1	0	0	0	0	492	512	
2	0	0	0	0	499	513	
3	0	0	0	0	510	513	
4	0	0	0	0	511	511	
5	0	0	0	0	515	513	
6	0	0	0	0	513	515	
7	0	0	0	0	513	510	
8	0	0	0	0	508	509	
9	0	0	0	0	511	509	
10	0	0	0	0	508	512	
11	0	0	0	0	506	512	
12	0	0	0	0	504	513	
13	0	0	0	0	502	513	
14	0	0	0	0	504	511	
15	0	0	0	0	507	511	
0	0	0	0	0	504	512	
1	0	0	0	0	505	511	
2	0	0	0	0	503	513	
3	0	0	0	0	503	511	
4	0	0	0	0	501	512	
5	0	0	0	0	499	515	
6	0	0	0	0	500	512	
7	0	0	0	0	507	514	
8	0	0	0	0	509	511	
9	0	0	0	0	523	511	
10	0	0	0	0	531	513	
11	0	0	0	0	524	513	
12	0	0	0	0	519	513	
13	0	0	0	0	508	511	
14	0	0	0	0	494	510	
15	0	0	0	0	485	512	
0	0	0	0	0	480	509	
1	0	0	0	0	479	511	
2	0	0	0	0	488	512	
3	0	0	0	0	505	513	
4	0	0	0	0	507	513	
5	0	0	0	0	512	510	
6	0	0	0	0	515	511	
7	0	0	0	0	513	508	
8	0	0	0	0	516	511	
9	0	0	0	0	516	513	
10	0	0	0	0	511	511	
11	0	0	0	0	501	512	
12	0	0	0	0	498	513	
13	0	0	0	0	506	512	
14	0	0	0	0	509	513	
15	0	0	0	0	495	512	
0	0	0	0	0	493	513	
1	0	0	0	0	506	513	
2	0	0	0	0	512	511	
3	0	0	0	0	511	510	
4	0	0	0	0	501	515	
5	0	0	0	0	500	510	
6	0	0	0	0	509	510	
7	0	0	0	0	507	509	
8	0	0	0	0	498	509	
9	0	0	0	0	500	511	
10	0	0	0	0	512	511	
11	0	0	0	0	520	511	
12	0	0	0	0	517	512	
13	0	0	0	0	515	515	
14	0	0	0	0	502	515	
15	0	0	0	0	496	514	
0	0	0	0	0	488	512	
1	0	0	0	0	483	512	
2	0	0	0	0	484	510	
3	0	0	0	0	498	509	
4	0	0	0	0	515	512	
5	0	0	0	0	519	512	
6	0	0	0	0	515	513	
7	0	0	0	0	516	513	
8	0	0	0	0	513	514	
9	0	0	0	0	510	514	
10	0	0	0	0	503	514	
11	0	0	0	0	495	515	
12	0	0	0	0	503	513	
13	0	0	0	0	512	510	
14	0	0	0	0	504	508	
15	0	0	0	0	500	508	
0	0	0	0	0	501	510	
1	0	0	0	0	502	511	
2	0	0	0	0	511	512	
3	0	0	0	0	517	511	
4	0	0	0	0	515	512	
5	0	0	0	0	509	513	
6	0	0	0	0	510	513	
7	0	0	0	0	510	512	
8	0	0	0	0	499	511	
9	0	0	0	0	481	510	
10	0	0	0	0	484	511	
11	0	0	0	0	503	513	
12	0	0	0	0	504	510	
13	0	0	0	0	512	511	
14	0	0	0	0	508	514	
15	0	0	0	0	511	512	
0	0	0	0	0	520	512	
1	0	0	0	0	512	513	
2	0	0	0	0	502	513	
3	0	0	0	0	494	511	
4	0	0	0	0	494	513	
5	0	0	0	0	519	512	
6	0	0	0	0	535	514	
7	0	0	0	0	529	513	
8	0	0	0	0	520	512	
9	0	0	0	0	502	512	
10	0	0	0	0	491	515	
11	0	0	0	0	475	513	
12	0	0	0	0	473	511	
13	0	0	0	0	483	513	
14	0	0	0	0	499	512	
15	0	0	0	0	517	512	
0	0	0	0	0	524	512	
1	0	0	0	0	530	512	
2	0	0	0	0	515	511	
3	0	0	0	0	501	510	
4	0	0	0	0	499	512	
5	0	0	0	0	495	510	
6	0	0	0	0	491	512	
7	0	0	0	0	495	512	
8	0	0	0	0	503	513	
9	0	0	0	0	508	510	
10	0	0	0	0	505	512	
11	0	0	0	0	504	513	
12	0	0	0	0	496	512	
13	0	0	0	0	496	513	
14	0	0	0	0	503	516	
15	0	0	0	0	506	511	
0	0	0	0	0	524	511	
1	0	0	0	0	531	508	
2	0	0	0	0	513	509	
3	0	0	0	0	495	511	
4	0	0	0	0	503	514	
5	0	0	0	0	523	512	
6	0	0	0	0	525	513	
7	0	0	0	0	511	512	
8	0	0	0	0	504	511	
9	0	0	0	0	493	510	
10	0	0	0	0	502	509	
11	0	0	0	0	515	512	
12	0	0	0	0	510	509	
13	0	0	0	0	521	509	
14	0	0	0	0	522	513	
15	0	0	0	0	502	511	
0	0	0	0	0	480	512	
1	0	0	0	0	479	513	
2	0	0	0	0	489	514	
3	0	0	0	0	496	513	
4	0	0	0	0	492	509	
5	0	0	0	0	487	514	
6	0	0	0	0	486	512	
7	0	0	0	0	495	511	
8	0	0	0	0	502	512	
9	0	0	0	0	499	513	
10	0	0	0	0	516	511	
11	0	0	0	0	523	511	
12	0	0	0	0	537	511	
13	0	0	0	0	527	510	
14	0	0	0	0	518	509	
15	0	0	0	0	528	510	
0	0	0	0	0	536	512	
1	0	0	0	0	523	513	
2	0	0	0	0	503	513	
3	0	0	0	0	483	515	
4	0	0	0	0	470	516	
5	0	0	0	0	476	513	
6	0	0	0	0	487	510	
7	0	0	0	0	504	511	
8	0	0	0	0	512	511	
9	0	0	0	0	504	512	
10	0	0	0	0	506	510	
11	0	0	0	0	504	512	
12	0	0	0	0	500	511	
13	0	0	0	0	499	512	
14	0	0	0	0	504	513	
15	0	0	0	0	509	509	
0	0	0	0	0	509	511	
1	0	0	0	0	510	513	
2	0	0	0	0	507	513	
3	0	0	0	0	507	512	
4	0	0	0	0	508	511	
5	0	0	0	0	509	508	
6	0	0	0	0	513	509	
7	0	0	0	0	510	510	
8	0	0	0	0	508	512	
9	0	0	0	0	501	514	
10	0	0	0	0	511	513	
11	0	0	0	0	500	511	
12	0	0	0	0	492	512	
13	0	0	0	0	497	511	
14	0	0	0	0	494	511	
15	0	0	0	0	503	514	
0	0	0	0	0	518	512	
1	0	0	0	0	526	511	
2	0	0	0	0	518	511	
3	0	0	0	0	513	511	
4	0	0	0	0	502	512	
5	0	0	0	0	492	511	
6	0	0	0	0	487	512	
7	0	0	0	0	486	511	
8	0	0	0	0	488	515	
9	0	0	0	0	497	516	
10	0	0	0	0	511	514	
11	0	0	0	0	514	512	
12	0	0	0	0	523	510	
13	0	0	0	0	545	510	
14	0	0	0	0	551	509	
15	0	0	0	0	556	508	
0	0	0	0	0	541	511	
1	0	0	0	0	507	509	
2	0	0	0	0	482	512	
3	0	0	0	0	468	514	
4	0	0	0	0	463	512	
5	0	0	0	0	473	516	
6	0	0	0	0	471	514	
7	0	0	0	0	479	513	
8	0	0	0	0	489	508	
9	0	0	0	0	508	511	
10	0	0	0	0	513	511	
11	0	0	0	0	518	513	
12	0	0	0	0	531	513	
13	0	0	0	0	524	509	
14	0	0	0	0	512	512	
15	0	0	0	0	499	513	
0	0	0	0	0	496	512	
1	0	0	0	0	489	513	
2	0	0	0	0	483	512	
3	0	0	0	0	487	512	
4	0	0	0	0	499	512	
5	0	0	0	0	510	512	
6	0	0	0	0	512	510	
7	0	0	0	0	527	513	
8	0	0	0	0	524	513	
9	0	0	0	0	530	512	
10	0	0	0	0	531	513	
11	0	0	0	0	519	513	
12	0	0	0	0	498	512	
13	0	0	0	0	481	511	
14	0	0	0	0	478	511	
15	0	0	0	0	470	507	
0	0	0	0	0	476	510	
1	0	0	0	0	493	510	
2	0	0	0	0	515	510	
3	0	0	0	0	523	512	
4	0	0	0	0	526	511	
5	0	0	0	0	521	513	
6	0	0	0	0	512	512	
7	0	0	0	0	504	511	
8	0	0	0	0	495	511	
9	0	0	0	0	503	512	
10	0	0	0	0	515	514	
11	0	0	0	0	518	512	
12	0	0	0	0	509	512	
13	0	0	0	0	506	512	
14	0	0	0	0	518	510	
15	0	0	0	0	510	515	
0	0	0	0	0	497	512	
1	0	0	0	0	480	511	
2	0	0	0	0	480	511	
3	0	0	0	0	497	512	
4	0	0	0	0	503	512	
5	0	0	0	0	524	515	
6	0	0	0	0	547	511	
7	0	0	0	0	556	513	
8	0	0	0	0	534	511	
9	0	0	0	0	505	512	
10	0	0	0	0	473	512	
11	0	0	0	0	470	510	
12	0	0	0	0	471	513	
13	0	0	0	0	478	510	
14	0	0	0	0	492	510	
15	0	0	0	0	494	512	
0	0	0	0	0	501	512	
1	0	0	0	0	518	512	
2	0	0	0	0	518	511	
3	0	0	0	0	529	512	
4	0	0	0	0	530	510	
5	0	0	0	0	525	510	
6	0	0	0	0	527	511	
7	0	0	0	0	512	513	
8	0	0	0	0	526	512	
9	0	0	0	0	517	511	
10	0	0	0	0	496	513	
11	0	0	0	0	487	511	
12	0	0	0	0	486	511	
13	0	0	0	0	491	511	
14	0	0	0	0	482	513	
15	0	0	0	0	476	513	
0	0	0	0	0	487	514	
1	0	0	0	0	504	517	
2	0	0	0	0	504	513	
3	0	0	0	0	506	510	
4	0	0	0	0	513	512	
5	0	0	0	0	517	511	
6	0	0	0	0	517	510	
7	0	0	0	0	514	512	
8	0	0	0	0	514	514	
9	0	0	0	0	503	508	
10	0	0	0	0	501	511	
11	0	0	0	0	497	512	
12	0	0	0	0	496	510	
13	0	0	0	0	496	511	
14	0	0	0	0	519	513	
15	0	0	0	0	541	514	
0	0	0	0	0	544	514	
1	0	0	0	0	523	512	
2	0	0	0	0	519	511	
3	0	0	0	0	505	512	
4	0	0	0	0	482	515	
5	0	0	0	0	455	511	
6	0	0	0	0	460	514	
7	0	0	0	0	476	512	
8	0	0	0	0	475	511	
9	0	0	0	0	500	509	
10	0	0	0	0	520	511	
11	0	0	0	0	526	510	
12	0	0	0	0	526	508	
13	0	0	0	0	519	510	
14	0	0	0	0	509	512	
15	0	0	0	0	504	512	
0	0	0	0	0	492	511	
1	0	0	0	0	506	513	
2	0	0	0	0	512	512	
3	0	0	0	0	512	516	
4	0	0	0	0	510	514	
5	0	0	0	0	512	512	
6	0	0	0	0	503	510	
7	0	0	0	0	500	511	
8	0	0	0	0	506	513	
9	0	0	0	0	500	511	
10	0	0	0	0	511	511	
11	0	0	0	0	518	514	
12	0	0	0	0	527	512	
13	0	0	0	0	525	512	
14	0	0	0	0	518	510	
15	0	0	0	0	510	513	
0	0	0	0	0	502	512	
1	0	0	0	0	513	512	
2	0	0	0	0	508	511	
3	0	0	0	0	495	508	
4	0	0	0	0	485	511	
5	0	0	0	0	487	511	
6	0	0	0	0	487	510	
7	0	0	0	0	480	511	
8	0	0	0	0	482	512	
9	0	0	0	0	492	512	
10	0	0	0	0	504	515	
11	0	0	0	0	507	515	
12	0	0	0	0	512	513	
13	0	0	0	0	507	512	
14	0	0	0	0	517	511	
15	0	0	0	0	527	511	
0	0	0	0	0	519	508	
1	0	0	0	0	527	509	
2	0	0	0	0	531	510	
3	0	0	0	0	523	512	
4	0	0	0	0	505	515	
5	0	0	0	0	487	515	
6	0	0	0	0	480	512	
7	0	0	0	0	478	510	
8	0	0	0	0	480	514	
9	0	0	0	0	498	513	
10	0	0	0	0	530	512	
11	0	0	0	0	542	512	
12	0	0	0	0	520	514	
13	0	0	0	0	507	518	
14	0	0	0	0	496	513	
15	0	0	0	0	492	510	
0	0	0	0	0	499	511	
1	0	0	0	0	491	511	
2	0	0	0	0	498	511	
3	0	0	0	0	502	509	
4	0	0	0	0	526	508	
5	0	0	0	0	521	510	
6	0	0	0	0	517	511	
7	0	0	0	0	519	511	
8	0	0	0	0	511	512	
9	0	0	0	0	501	513	
10	0	0	0	0	490	515	
11	0	0	0	0	480	514	
12	0	0	0	0	477	515	
13	0	0	0	0	474	513	
14	0	0	0	0	466	512	
15	0	0	0	0	487	510	
0	0	0	0	0	512	512	
1	0	0	0	0	524	510	
2	0	0	0	0	513	512	
3	0	0	0	0	512	510	
4	0	0	0	0	522	509	
5	0	0	0	0	533	512	
6	0	0	0	0	532	511	
7	0	0	0	0	515	509	
8	0	0	0	0	521	513	
9	0	0	0	0	523	511	
10	0	0	0	0	508	511	
11	0	0	0	0	499	513	
12	0	0	0	0	501	512	
13	0	0	0	0	500	513	
14	0	0	0	0	494	512	
15	0	0	0	0	499	511	
0	0	0	0	0	509	511	
1	0	0	0	0	510	514	
2	0	0	0	0	496	513	
3	0	0	0	0	499	512	
4	0	0	0	0	496	513	
5	0	0	0	0	513	510	
6	0	0	0	0	503	510	
7	0	0	0	0	489	510	
8	0	0	0	0	494	512	
9	0	0	0	0	491	511	
10	0	0	0	0	493	512	
11	0	0	0	0	505	514	
12	0	0	0	0	522	514	
13	0	0	0	0	512	514	
14	0	0	0	0	516	512	
15	0	0	0	0	512	513	
0	0	0	0	0	523	514	
1	0	0	0	0	511	512	
2	0	0	0	0	489	509	
3	0	0	0	0	489	508	
4	0	0	0	0	489	509	
5	0	0	0	0	496	512	
6	0	0	0	0	497	510	
7	0	0	0	0	505	512	
8	0	0	0	0	507	515	
9	0	0	0	0	512	513	
10	0	0	0	0	515	513	
11	0	0	0	0	518	510	
12	0	0	0	0	511	510	
13	0	0	0	0	519	512	
14	0	0	0	0	542	512	
15	0	0	0	0	529	511	
0	0	0	0	0	507	513	
1	0	0	0	0	491	511	
2	0	0	0	0	487	513	
3	0	0	0	0	494	514	
4	0	0	0	0	491	514	
5	0	0	0	0	487	512	
6	0	0	0	0	486	511	
7	0	0	0	0	494	511	
8	0	0	0	0	508	511	
9	0	0	0	0	536	512	
10	0	0	0	0	549	512	
11	0	0	0	0	534	510	
12	0	0	0	0	507	511	
13	0	0	0	0	490	516	
14	0	0	0	0	467	515	
15	0	0	0	0	477	513	
0	0	0	0	0	489	510	
1	0	0	0	0	491	510	
2	0	0	0	0	497	511	
3	0	0	0	0	513	510	
4	0	0	0	0	516	513	
5	0	0	0	0	518	511	
6	0	0	0	0	499	511	
7	0	0	0	0	492	510	
8	0	0	0	0	510	511	
9	0	0	0	0	520	510	
10	0	0	0	0	522	512	
11	0	0	0	0	535	513	
12	0	0	0	0	518	512	
13	0	0	0	0	508	512	
14	0	0	0	0	496	511	
15	0	0	0	0	484	512	
0	0	0	0	0	492	515	
1	0	0	0	0	510	511	
2	0	0	0	0	524	512	
3	0	0	0	0	519	511	
4	0	0	0	0	504	511	
5	0	0	0	0	500	510	
6	0	0	0	0	504	513	
7	0	0	0	0	503	513	
8	0	0	0	0	490	512	
9	0	0	0	0	492	512	
10	0	0	0	0	496	513	
11	0	0	0	0	503	514	
12	0	0	0	0	505	514	
13	0	0	0	0	507	512	
14	0	0	0	0	504	511	
15	0	0	0	0	507	511	
0	0	0	0	0	510	513	
1	0	0	0	0	510	510	
2	0	0	0	0	503	511	
3	0	0	0	0	510	512	
4	0	0	0	0	511	512	
5	0	0	0	0	511	511	
6	0	0	0	0	518	513	
7	0	0	0	0	519	511	
8	0	0	0	0	511	511	
9	0	0	0	0	494	513	
10	0	0	0	0	492	512	
11	0	0	0	0	493	513	
12	0	0	0	0	493	512	
13	0	0	0	0	499	515	
14	0	0	0	0	510	515	
15	0	0	0	0	516	512	
0	0	0	0	0	502	508	
1	0	0	0	0	511	508	
2	0	0	0	0	524	508	
3	0	0	0	0	516	512	
4	0	0	0	0	503	513	
5	0	0	0	0	500	513	
6	0	0	0	0	494	514	
7	0	0	0	0	491	515	
8	0	0	0	0	492	513	
9	0	0	0	0	495	510	
10	0	0	0	0	492	509	
11	0	0	0	0	499	510	
12	0	0	0	0	504	511	
13	0	0	0	0	504	512	
14	0	0	0	0	499	513	
15	0	0	0	0	511	513	
0	0	0	0	0	536	515	
1	0	0	0	0	536	512	
2	0	0	0	0	527	513	
3	0	0	0	0	513	511	
4	0	0	0	0	499	509	
5	0	0	0	0	494	512	
6	0	0	0	0	491	511	
7	0	0	0	0	494	511	
8	0	0	0	0	504	513	
9	0	0	0	0	504	510	
10	0	0	0	0	512	510	
11	0	0	0	0	523	510	
12	0	0	0	0	528	511	
13	0	0	0	0	523	510	
14	0	0	0	0	511	511	
15	0	0	0	0	494	513	
0	0	0	0	0	479	515	
1	0	0	0	0	467	511	
2	0	0	0	0	478	512	
3	0	0	0	0	481	513	
4	0	0	0	0	491	513	
5	0	0	0	0	507	512	
6	0	0	0	0	507	512	
7	0	0	0	0	519	511	
8	0	0	0	0	523	512	
9	0	0	0	0	519	512	
10	0	0	0	0	514	511	
11	0	0	0	0	512	511	
12	0	0	0	0	511	511	
13	0	0	0	0	512	513	
14	0	0	0	0	503	513	
15	0	0	0	0	501	511	
0	0	0	0	0	496	510	
1	0	0	0	0	507	511	
2	0	0	0	0	518	511	
3	0	0	0	0	520	511	
4	0	0	0	0	515	511	
5	0	0	0	0	522	515	
6	0	0	0	0	548	511	
7	0	0	0	0	520	512	
8	0	0	0	0	480	512	
9	0	0	0	0	463	512	
10	0	0	0	0	464	510	
11	0	0	0	0	478	510	
12	0	0	0	0	483	510	
13	0	0	0	0	488	512	
14	0	0	0	0	513	512	
15	0	0	0	0	529	513	
0	0	0	0	0	539	513	
1	0	0	0	0	529	512	
2	0	0	0	0	520	512	
3	0	0	0	0	500	510	
4	0	0	0	0	485	513	
5	0	0	0	0	486	513	
6	0	0	0	0	485	513	
7	0	0	0	0	493	512	
8	0	0	0	0	506	510	
9	0	0	0	0	515	512	
10	0	0	0	0	516	511	
11	0	0	0	0	518	509	
12	0	0	0	0	516	510	
13	0	0	0	0	509	512	
14	0	0	0	0	508	512	
15	0	0	0	0	504	511	
0	0	0	0	0	499	514	
1	0	0	0	0	500	515	
2	0	0	0	0	501	512	
3	0	0	0	0	501	512	
4	0	0	0	0	508	512	
5	0	0	0	0	515	513	
6	0	0	0	0	512	511	
7	0	0	0	0	507	515	
8	0	0	0	0	502	512	
9	0	0	0	0	504	510	
10	0	0	0	0	506	509	
11	0	0	0	0	497	511	
12	0	0	0	0	493	515	
13	0	0	0	0	511	513	
14	0	0	0	0	515	513	
15	0	0	0	0	518	511	
0	0	0	0	0	522	511	
1	0	0	0	0	517	514	
2	0	0	0	0	517	513	
3	0	0	0	0	509	513	
4	0	0	0	0	492	511	
5	0	0	0	0	492	510	
6	0	0	0	0	480	510	
7	0	0	0	0	488	511	
8	0	0	0	0	500	512	
9	0	0	0	0	505	510	
10	0	0	0	0	504	512	
11	0	0	0	0	505	510	
12	0	0	0	0	501	511	
13	0	0	0	0	495	513	
14	0	0	0	0	494	513	
15	0	0	0	0	502	512	
0	0	0	0	0	505	512	
1	0	0	0	0	511	512	
2	0	0	0	0	518	513	
3	0	0	0	0	517	512	
4	0	0	0	0	512	512	
5	0	0	0	0	521	514	
6	0	0	0	0	511	513	
7	0	0	0	0	507	512	
8	0	0	0	0	515	511	
9	0	0	0	0	521	511	
10	0	0	0	0	514	513	
11	0	0	0	0	498	514	
12	0	0	0	0	490	514	
13	0	0	0	0	491	515	
14	0	0	0	0	496	511	
15	0	0	0	0	497	510	
0	0	0	0	0	512	510	
1	0	0	0	0	520	512	
2	0	0	0	0	517	509	
3	0	0	0	0	513	512	
4	0	0	0	0	510	515	
5	0	0	0	0	503	512	
6	0	0	0	0	486	511	
7	0	0	0	0	480	512	
8	0	0	0	0	491	511	
9	0	0	0	0	510	512	
10	0	0	0	0	503	511	
11	0	0	0	0	504	510	
12	0	0	0	0	506	509	
13	0	0	0	0	508	512	
14	0	0	0	0	504	512	
15	0	0	0	0	504	512	
0	0	0	0	0	515	513	
1	0	0	0	0	521	510	
2	0	0	0	0	518	513	
3	0	0	0	0	515	513	
4	0	0	0	0	506	512	
5	0	0	0	0	497	511	
6	0	0	0	0	492	513	
7	0	0	0	0	489	510	
8	0	0	0	0	487	514	
9	0	0	0	0	487	511	
10	0	0	0	0	504	511	
11	0	0	0	0	511	514	
12	0	0	0	0	526	510	
13	0	0	0	0	525	507	
14	0	0	0	0	522	508	
15	0	0	0	0	533	510	
0	0	0	0	0	522	512	
1	0	0	0	0	511	513	
2	0	0	0	0	499	513	
3	0	0	0	0	496	512	
4	0	0	0	0	498	511	
5	0	0	0	0	492	512	
6	0	0	0	0	484	516	
7	0	0	0	0	510	516	
8	0	0	0	0	532	513	
9	0	0	0	0	517	510	
10	0	0	0	0	502	511	
11	0	0	0	0	511	508	
12	0	0	0	0	507	510	
13	0	0	0	0	493	512	
14	0	0	0	0	464	512	
15	0	0	0	0	470	511	
0	0	0	0	0	483	510	
1	0	0	0	0	493	510	
2	0	0	0	0	496	512	
3	0	0	0	0	503	511	
4	0	0	0	0	511	515	
5	0	0	0	0	507	514	
6	0	0	0	0	511	512	
7	0	0	0	0	512	509	
8	0	0	0	0	513	512	
9	0	0	0	0	529	511	
10	0	0	0	0	529	512	
11	0	0	0	0	527	511	
12	0	0	0	0	524	512	
13	0	0	0	0	524	513	
14	0	0	0	0	509	511	
15	0	0	0	0	489	515	
0	0	0	0	0	489	515	
1	0	0	0	0	497	513	
2	0	0	0	0	493	514	
3	0	0	0	0	506	512	
4	0	0	0	0	507	513	
5	0	0	0	0	508	512	
6	0	0	0	0	518	510	
7	0	0	0	0	497	509	
8	0	0	0	0	477	508	
9	0	0	0	0	476	509	
10	0	0	0	0	491	511	
11	0	0	0	0	504	513	
12	0	0	0	0	535	508	
13	0	0	0	0	536	513	
14	0	0	0	0	534	513	
15	0	0	0	0	519	513	
0	0	0	0	0	509	511	
1	0	0	0	0	497	511	
2	0	0	0	0	484	514	
3	0	0	0	0	473	513	
4	0	0	0	0	478	514	
5	0	0	0	0	484	511	
6	0	0	0	0	504	515	
7	0	0	0	0	507	513	
8	0	0	0	0	504	512	
9	0	0	0	0	506	512	
10	0	0	0	0	511	512	
11	0	0	0	0	515	511	
12	0	0	0	0	510	512	
13	0	0	0	0	520	511	
14	0	0	0	0	540	511	
15	0	0	0	0	554	507	
0	0	0	0	0	540	511	
1	0	0	0	0	527	512	
2	0	0	0	0	517	512	
3	0	0	0	0	482	510	
4	0	0	0	0	455	512	
5	0	0	0	0	463	514	
6	0	0	0	0	464	512	
7	0	0	0	0	481	508	
8	0	0	0	0	491	512	
9	0	0	0	0	510	513	
10	0	0	0	0	530	513	
11	0	0	0	0	526	512	
12	0	0	0	0	520	512	
13	0	0	0	0	521	512	
14	0	0	0	0	512	512	
15	0	0	0	0	508	514	
0	0	0	0	0	496	514	
1	0	0	0	0	487	513	
2	0	0	0	0	490	512	
3	0	0	0	0	494	512	
4	0	0	0	0	509	509	
5	0	0	0	0	499	512	
6	0	0	0	0	508	515	
7	0	0	0	0	526	515	
8	0	0	0	0	504	514	
9	0	0	0	0	491	511	
10	0	0	0	0	504	517	
11	0	0	0	0	536	516	
12	0	0	0	0	553	514	
13	0	0	0	0	529	512	
14	0	0	0	0	502	512	
15	0	0	0	0	505	508	
0	0	0	0	0	492	504	
1	0	0	0	0	477	504	
2	0	0	0	0	471	504	
3	0	0	0	0	480	506	
4	0	0	0	0	504	512	
5	0	0	0	0	508	512	
6	0	0	0	0	504	512	
7	0	0	0	0	500	515	
8	0	0	0	0	510	515	
9	0	0	0	0	506	514	
10	0	0	0	0	502	515	
11	0	0	0	0	509	515	
12	0	0	0	0	505	513	
13	0	0	0	0	503	511	
14	0	0	0	0	510	512	
15	0	0	0	0	538	511	
0	0	0	0	0	535	512	
1	0	0	0	0	515	511	
2	0	0	0	0	502	510	
3	0	0	0	0	489	512	
