# OpenSignals Text File Format. Version 1
# {"98:D3:71:FE:38:C0": {"position": 0, "device": "bitalino_rev", "device name": "98:D3:71:FE:38:C0", "device connection": "BTH98:D3:71:FE:38:C0", "sampling rate": 1000, "resolution": [4, 1, 1, 1, 1, 10, 10], "firmware version": 1282, "comments": "", "keywords": "", "mode": 0, "sync interval": 2, "date": "2026-6-12", "time": "12:21:33.520", "channels": [1, 2], "sensor": ["EMGBITREV", "EMGBITREV"], "label": ["A1", "A2"], "column": ["nSeq", "I1", "I2", "O1", "O2", "A1", "A2"], "special": [{}, {}], "digital IO": [0, 0, 1, 1]}}
# EndOfHeader
0	0	0	0	0	505	512	
1	0	0	0	0	507	513	
2	0	0	0	0	506	513	
3	0	0	0	0	507	512	
4	0	0	0	0	504	511	
5	0	0	0	0	505	511	
6	0	0	0	0	504	512	
7	0	0	0	0	506	513	
8	0	0	0	0	507	512	
9	0	0	0	0	505	514	
10	0	0	0	0	504	513	
11	0	0	0	0	505	514	
12	0	0	0	0	504	511	
13	0	0	0	0	504	510	
14	0	0	0	0	504	511	
15	0	0	0	0	506	511	
0	0	0	0	0	506	508	
1	0	0	0	0	507	512	
2	0	0	0	0	506	513	
3	0	0	0	0	506	512	
4	0	0	0	0	505	511	
5	0	0	0	0	506	512	
6	0	0	0	0	507	511	
7	0	0	0	0	507	512	
8	0	0	0	0	507	512	
9	0	0	0	0	505	512	
10	0	0	0	0	507	513	
11	0	0	0	0	504	511	
12	0	0	0	0	505	512	
13	0	0	0	0	504	513	
14	0	0	0	0	505	510	
15	0	0	0	0	507	509	
0	0	0	0	0	504	512	
1	0	0	0	0	505	512	
2	0	0	0	0	507	510	
3	0	0	0	0	505	512	
4	0	0	0	0	505	512	
5	0	0	0	0	505	512	
6	0	0	0	0	505	510	
7	0	0	0	0	506	511	
8	0	0	0	0	504	510	
9	0	0	0	0	505	513	
10	0	0	0	0	505	515	
11	0	0	0	0	505	511	
12	0	0	0	0	504	513	
13	0	0	0	0	507	513	
14	0	0	0	0	507	510	
15	0	0	0	0	506	509	
0	0	0	0	0	507	512	
1	0	0	0	0	505	512	
2	0	0	0	0	506	513	
3	0	0	0	0	506	513	
4	0	0	0	0	505	512	
5	0	0	0	0	506	514	
6	0	0	0	0	507	512	
7	0	0	0	0	507	512	
8	0	0	0	0	508	510	
9	0	0	0	0	504	513	
10	0	0	0	0	504	511	
11	0	0	0	0	506	514	
12	0	0	0	0	504	514	
13	0	0	0	0	504	512	
14	0	0	0	0	504	512	
15	0	0	0	0	506	512	
0	0	0	0	0	507	512	
1	0	0	0	0	505	511	
2	0	0	0	0	504	511	
3	0	0	0	0	505	512	
4	0	0	0	0	505	512	
5	0	0	0	0	503	512	
6	0	0	0	0	506	512	
7	0	0	0	0	505	510	
8	0	0	0	0	505	511	
9	0	0	0	0	505	512	
10	0	0	0	0	504	512	
11	0	0	0	0	507	510	
12	0	0	0	0	506	511	
13	0	0	0	0	504	510	
14	0	0	0	0	506	510	
15	0	0	0	0	507	512	
0	0	0	0	0	507	511	
1	0	0	0	0	505	508	
2	0	0	0	0	506	510	
3	0	0	0	0	505	512	
4	0	0	0	0	507	512	
5	0	0	0	0	505	514	
6	0	0	0	0	505	515	
7	0	0	0	0	504	513	
8	0	0	0	0	505	513	
9	0	0	0	0	505	513	
10	0	0	0	0	506	512	
11	0	0	0	0	505	512	
12	0	0	0	0	503	513	
13	0	0	0	0	505	512	
14	0	0	0	0	506	512	
15	0	0	0	0	507	512	
0	0	0	0	0	507	512	
1	0	0	0	0	506	511	
2	0	0	0	0	505	513	
3	0	0	0	0	507	512	
4	0	0	0	0	504	512	
5	0	0	0	0	505	512	
6	0	0	0	0	506	512	
7	0	0	0	0	506	512	
8	0	0	0	0	504	511	
9	0	0	0	0	504	511	
10	0	0	0	0	506	511	
11	0	0	0	0	506	509	
12	0	0	0	0	505	512	
13	0	0	0	0	505	514	
14	0	0	0	0	506	513	
15	0	0	0	0	506	512	
0	0	0	0	0	505	511	
1	0	0	0	0	504	511	
2	0	0	0	0	505	512	
3	0	0	0	0	506	510	
4	0	0	0	0	504	509	
5	0	0	0	0	505	511	
6	0	0	0	0	506	513	
7	0	0	0	0	504	513	
8	0	0	0	0	504	511	
9	0	0	0	0	505	512	
10	0	0	0	0	505	512	
11	0	0	0	0	504	512	
12	0	0	0	0	506	512	
13	0	0	0	0	507	511	
14	0	0	0	0	507	512	
15	0	0	0	0	505	513	
0	0	0	0	0	506	513	
1	0	0	0	0	504	513	
2	0	0	0	0	508	512	
3	0	0	0	0	507	514	
4	0	0	0	0	505	512	
5	0	0	0	0	507	513	
6	0	0	0	0	506	512	
7	0	0	0	0	508	509	
8	0	0	0	0	507	510	
9	0	0	0	0	505	509	
10	0	0	0	0	505	513	
11	0	0	0	0	506	512	
12	0	0	0	0	504	512	
13	0	0	0	0	504	511	
14	0	0	0	0	505	513	
15	0	0	0	0	506	511	
0	0	0	0	0	505	512	
1	0	0	0	0	506	511	
2	0	0	0	0	505	511	
3	0	0	0	0	505	512	
4	0	0	0	0	506	515	
5	0	0	0	0	505	515	
6	0	0	0	0	505	514	
7	0	0	0	0	504	510	
8	0	0	0	0	504	510	
9	0	0	0	0	504	510	
10	0	0	0	0	506	513	
11	0	0	0	0	504	513	
12	0	0	0	0	505	513	
13	0	0	0	0	507	512	
14	0	0	0	0	506	512	
15	0	0	0	0	504	512	
0	0	0	0	0	504	512	
1	0	0	0	0	508	511	
2	0	0	0	0	508	511	
3	0	0	0	0	504	512	
4	0	0	0	0	504	514	
5	0	0	0	0	504	512	
6	0	0	0	0	505	512	
7	0	0	0	0	506	513	
8	0	0	0	0	504	512	
9	0	0	0	0	504	512	
10	0	0	0	0	505	509	
11	0	0	0	0	504	511	
12	0	0	0	0	505	511	
13	0	0	0	0	506	513	
14	0	0	0	0	504	512	
15	0	0	0	0	506	513	
0	0	0	0	0	505	513	
1	0	0	0	0	507	511	
2	0	0	0	0	505	511	
3	0	0	0	0	506	514	
4	0	0	0	0	508	510	
5	0	0	0	0	506	512	
6	0	0	0	0	504	512	
7	0	0	0	0	507	508	
8	0	0	0	0	503	510	
9	0	0	0	0	504	512	
10	0	0	0	0	507	513	
11	0	0	0	0	507	514	
12	0	0	0	0	505	512	
13	0	0	0	0	505	512	
14	0	0	0	0	504	512	
15	0	0	0	0	505	511	
0	0	0	0	0	504	510	
1	0	0	0	0	504	510	
2	0	0	0	0	504	510	
3	0	0	0	0	507	509	
4	0	0	0	0	507	513	
5	0	0	0	0	505	513	
6	0	0	0	0	507	513	
7	0	0	0	0	505	512	
8	0	0	0	0	507	513	
9	0	0	0	0	505	511	
10	0	0	0	0	507	512	
11	0	0	0	0	506	511	
12	0	0	0	0	505	512	
13	0	0	0	0	506	510	
14	0	0	0	0	507	512	
15	0	0	0	0	506	512	
0	0	0	0	0	506	513	
1	0	0	0	0	505	511	
2	0	0	0	0	504	512	
3	0	0	0	0	504	513	
4	0	0	0	0	505	512	
5	0	0	0	0	504	514	
6	0	0	0	0	504	512	
7	0	0	0	0	505	512	
8	0	0	0	0	505	514	
9	0	0	0	0	507	515	
10	0	0	0	0	507	510	
11	0	0	0	0	504	511	
12	0	0	0	0	504	514	
13	0	0	0	0	505	512	
14	0	0	0	0	507	512	
15	0	0	0	0	508	514	
0	0	0	0	0	504	512	
1	0	0	0	0	505	510	
2	0	0	0	0	504	509	
3	0	0	0	0	505	510	
4	0	0	0	0	501	512	
5	0	0	0	0	505	511	
6	0	0	0	0	506	513	
7	0	0	0	0	506	513	
8	0	0	0	0	507	511	
9	0	0	0	0	505	513	
10	0	0	0	0	507	510	
11	0	0	0	0	505	511	
12	0	0	0	0	505	512	
13	0	0	0	0	507	514	
14	0	0	0	0	505	512	
15	0	0	0	0	506	511	
0	0	0	0	0	505	510	
1	0	0	0	0	505	511	
2	0	0	0	0	506	512	
3	0	0	0	0	506	513	
4	0	0	0	0	505	513	
5	0	0	0	0	507	512	
6	0	0	0	0	504	511	
7	0	0	0	0	505	512	
8	0	0	0	0	505	511	
9	0	0	0	0	505	513	
10	0	0	0	0	504	513	
11	0	0	0	0	505	512	
12	0	0	0	0	505	513	
13	0	0	0	0	507	513	
14	0	0	0	0	505	513	
15	0	0	0	0	504	512	
0	0	0	0	0	505	508	
1	0	0	0	0	505	510	
2	0	0	0	0	505	511	
3	0	0	0	0	505	511	
4	0	0	0	0	505	512	
5	0	0	0	0	508	512	
6	0	0	0	0	504	512	
7	0	0	0	0	505	512	
8	0	0	0	0	504	516	
9	0	0	0	0	506	514	
10	0	0	0	0	507	512	
11	0	0	0	0	504	512	
12	0	0	0	0	506	511	
13	0	0	0	0	505	513	
14	0	0	0	0	508	513	
15	0	0	0	0	504	509	
0	0	0	0	0	506	511	
1	0	0	0	0	506	511	
2	0	0	0	0	504	511	
3	0	0	0	0	505	512	
4	0	0	0	0	502	512	
5	0	0	0	0	505	513	
6	0	0	0	0	505	510	
7	0	0	0	0	507	511	
8	0	0	0	0	504	512	
9	0	0	0	0	507	512	
10	0	0	0	0	506	512	
11	0	0	0	0	506	513	
12	0	0	0	0	505	512	
13	0	0	0	0	503	512	
14	0	0	0	0	507	512	
15	0	0	0	0	506	512	
0	0	0	0	0	507	512	
1	0	0	0	0	504	511	
2	0	0	0	0	505	512	
3	0	0	0	0	505	512	
4	0	0	0	0	506	510	
5	0	0	0	0	506	511	
6	0	0	0	0	507	510	
7	0	0	0	0	505	512	
8	0	0	0	0	505	511	
9	0	0	0	0	504	511	
10	0	0	0	0	505	513	
11	0	0	0	0	506	512	
12	0	0	0	0	505	512	
13	0	0	0	0	507	512	
14	0	0	0	0	504	512	
15	0	0	0	0	505	513	
0	0	0	0	0	507	512	
1	0	0	0	0	505	513	
2	0	0	0	0	505	512	
3	0	0	0	0	504	513	
4	0	0	0	0	506	513	
5	0	0	0	0	505	512	
6	0	0	0	0	505	510	
7	0	0	0	0	507	510	
8	0	0	0	0	507	512	
9	0	0	0	0	508	511	
10	0	0	0	0	505	511	
11	0	0	0	0	504	515	
12	0	0	0	0	504	512	
13	0	0	0	0	504	511	
14	0	0	0	0	506	512	
15	0	0	0	0	506	513	
0	0	0	0	0	505	513	
1	0	0	0	0	505	511	
2	0	0	0	0	506	511	
3	0	0	0	0	505	511	
4	0	0	0	0	507	511	
5	0	0	0	0	506	513	
6	0	0	0	0	507	513	
7	0	0	0	0	507	511	
8	0	0	0	0	504	511	
9	0	0	0	0	505	513	
10	0	0	0	0	507	514	
11	0	0	0	0	504	511	
12	0	0	0	0	505	510	
13	0	0	0	0	506	513	
14	0	0	0	0	507	512	
15	0	0	0	0	505	511	
0	0	0	0	0	506	510	
1	0	0	0	0	505	510	
2	0	0	0	0	506	513	
3	0	0	0	0	505	512	
4	0	0	0	0	504	513	
5	0	0	0	0	504	512	
6	0	0	0	0	507	514	
7	0	0	0	0	505	511	
8	0	0	0	0	505	511	
9	0	0	0	0	504	512	
10	0	0	0	0	504	512	
11	0	0	0	0	504	510	
12	0	0	0	0	506	512	
13	0	0	0	0	505	511	
14	0	0	0	0	506	513	
15	0	0	0	0	507	511	
0	0	0	0	0	505	512	
1	0	0	0	0	505	511	
2	0	0	0	0	506	512	
3	0	0	0	0	505	513	
4	0	0	0	0	507	513	
5	0	0	0	0	505	512	
6	0	0	0	0	507	511	
7	0	0	0	0	507	513	
8	0	0	0	0	504	511	
9	0	0	0	0	507	510	
10	0	0	0	0	506	514	
11	0	0	0	0	505	512	
12	0	0	0	0	506	513	
13	0	0	0	0	507	510	
14	0	0	0	0	504	512	
15	0	0	0	0	506	512	
0	0	0	0	0	505	512	
1	0	0	0	0	505	512	
2	0	0	0	0	506	511	
3	0	0	0	0	505	510	
4	0	0	0	0	504	511	
5	0	0	0	0	506	511	
6	0	0	0	0	504	512	
7	0	0	0	0	506	510	
8	0	0	0	0	506	513	
9	0	0	0	0	504	513	
10	0	0	0	0	507	515	
11	0	0	0	0	505	511	
12	0	0	0	0	506	510	
13	0	0	0	0	504	510	
14	0	0	0	0	503	510	
15	0	0	0	0	506	512	
0	0	0	0	0	504	513	
1	0	0	0	0	505	511	
2	0	0	0	0	505	513	
3	0	0	0	0	507	511	
4	0	0	0	0	505	511	
5	0	0	0	0	505	513	
6	0	0	0	0	504	511	
7	0	0	0	0	505	512	
8	0	0	0	0	508	513	
9	0	0	0	0	504	512	
10	0	0	0	0	505	512	
11	0	0	0	0	505	511	
12	0	0	0	0	506	514	
13	0	0	0	0	507	512	
14	0	0	0	0	507	512	
15	0	0	0	0	507	514	
0	0	0	0	0	504	511	
1	0	0	0	0	506	510	
2	0	0	0	0	506	512	
3	0	0	0	0	504	512	
4	0	0	0	0	504	513	
5	0	0	0	0	505	511	
6	0	0	0	0	502	511	
7	0	0	0	0	504	513	
8	0	0	0	0	505	512	
9	0	0	0	0	506	508	
10	0	0	0	0	505	513	
11	0	0	0	0	505	512	
12	0	0	0	0	506	513	
13	0	0	0	0	504	513	
14	0	0	0	0	507	513	
15	0	0	0	0	505	512	
0	0	0	0	0	507	511	
1	0	0	0	0	504	513	
2	0	0	0	0	505	511	
3	0	0	0	0	505	512	
4	0	0	0	0	505	512	
5	0	0	0	0	506	510	
6	0	0	0	0	508	512	
7	0	0	0	0	506	514	
8	0	0	0	0	506	515	
9	0	0	0	0	505	513	
10	0	0	0	0	504	510	
11	0	0	0	0	505	511	
12	0	0	0	0	505	510	
13	0	0	0	0	507	511	
14	0	0	0	0	505	511	
15	0	0	0	0	505	511	
0	0	0	0	0	505	511	
1	0	0	0	0	508	512	
2	0	0	0	0	506	509	
3	0	0	0	0	505	513	
4	0	0	0	0	505	510	
5	0	0	0	0	505	514	
6	0	0	0	0	506	512	
7	0	0	0	0	504	513	
8	0	0	0	0	504	511	
9	0	0	0	0	504	511	
10	0	0	0	0	505	511	
11	0	0	0	0	505	510	
12	0	0	0	0	504	510	
13	0	0	0	0	507	511	
14	0	0	0	0	505	513	
15	0	0	0	0	504	512	
0	0	0	0	0	505	513	
1	0	0	0	0	505	512	
2	0	0	0	0	505	514	
3	0	0	0	0	505	512	
4	0	0	0	0	504	514	
5	0	0	0	0	505	514	
6	0	0	0	0	505	514	
7	0	0	0	0	505	511	
8	0	0	0	0	504	509	
9	0	0	0	0	507	511	
10	0	0	0	0	505	513	
11	0	0	0	0	505	512	
12	0	0	0	0	504	513	
13	0	0	0	0	505	513	
14	0	0	0	0	505	513	
15	0	0	0	0	505	513	
0	0	0	0	0	505	511	
1	0	0	0	0	507	513	
2	0	0	0	0	505	510	
3	0	0	0	0	505	510	
4	0	0	0	0	504	511	
5	0	0	0	0	506	511	
6	0	0	0	0	506	513	
7	0	0	0	0	504	513	
8	0	0	0	0	505	511	
9	0	0	0	0	505	511	
10	0	0	0	0	506	512	
11	0	0	0	0	507	512	
12	0	0	0	0	505	514	
13	0	0	0	0	505	512	
14	0	0	0	0	505	512	
15	0	0	0	0	505	511	
0	0	0	0	0	505	512	
1	0	0	0	0	507	511	
2	0	0	0	0	505	512	
3	0	0	0	0	506	510	
4	0	0	0	0	504	512	
5	0	0	0	0	504	511	
6	0	0	0	0	506	511	
7	0	0	0	0	505	513	
8	0	0	0	0	507	511	
9	0	0	0	0	506	515	
10	0	0	0	0	505	513	
11	0	0	0	0	504	512	
12	0	0	0	0	508	513	
13	0	0	0	0	504	515	
14	0	0	0	0	504	513	
15	0	0	0	0	505	514	
0	0	0	0	0	508	512	
1	0	0	0	0	506	513	
2	0	0	0	0	507	512	
3	0	0	0	0	505	510	
4	0	0	0	0	505	509	
5	0	0	0	0	505	511	
6	0	0	0	0	505	511	
7	0	0	0	0	508	512	
8	0	0	0	0	504	511	
9	0	0	0	0	505	511	
10	0	0	0	0	505	511	
11	0	0	0	0	504	511	
12	0	0	0	0	506	511	
13	0	0	0	0	504	513	
14	0	0	0	0	505	513	
15	0	0	0	0	507	512	
0	0	0	0	0	505	512	
1	0	0	0	0	506	511	
2	0	0	0	0	505	510	
3	0	0	0	0	506	509	
4	0	0	0	0	504	512	
5	0	0	0	0	506	513	
6	0	0	0	0	504	512	
7	0	0	0	0	505	512	
8	0	0	0	0	505	515	
9	0	0	0	0	505	513	
10	0	0	0	0	505	512	
11	0	0	0	0	506	508	
12	0	0	0	0	508	512	
13	0	0	0	0	506	511	
14	0	0	0	0	507	512	
15	0	0	0	0	505	508	
0	0	0	0	0	507	513	
1	0	0	0	0	504	515	
2	0	0	0	0	504	512	
3	0	0	0	0	504	513	
4	0	0	0	0	505	513	
5	0	0	0	0	506	511	
6	0	0	0	0	505	511	
7	0	0	0	0	504	512	
8	0	0	0	0	505	511	
9	0	0	0	0	504	513	
10	0	0	0	0	506	513	
11	0	0	0	0	506	512	
12	0	0	0	0	505	513	
13	0	0	0	0	504	513	
14	0	0	0	0	502	511	
15	0	0	0	0	507	512	
0	0	0	0	0	506	512	
1	0	0	0	0	508	513	
2	0	0	0	0	506	512	
3	0	0	0	0	504	512	
4	0	0	0	0	505	511	
5	0	0	0	0	505	513	
6	0	0	0	0	505	512	
7	0	0	0	0	504	511	
8	0	0	0	0	506	512	
9	0	0	0	0	504	512	
10	0	0	0	0	506	511	
11	0	0	0	0	508	511	
12	0	0	0	0	507	512	
13	0	0	0	0	505	510	
14	0	0	0	0	504	511	
15	0	0	0	0	506	513	
0	0	0	0	0	504	512	
1	0	0	0	0	507	512	
2	0	0	0	0	505	512	
3	0	0	0	0	506	512	
4	0	0	0	0	506	512	
5	0	0	0	0	507	515	
6	0	0	0	0	506	515	
7	0	0	0	0	502	512	
8	0	0	0	0	506	509	
9	0	0	0	0	507	511	
10	0	0	0	0	505	510	
11	0	0	0	0	505	511	
12	0	0	0	0	504	511	
13	0	0	0	0	506	512	
14	0	0	0	0	504	510	
15	0	0	0	0	508	511	
0	0	0	0	0	506	514	
1	0	0	0	0	505	512	
2	0	0	0	0	505	512	
3	0	0	0	0	505	511	
4	0	0	0	0	507	511	
5	0	0	0	0	504	512	
6	0	0	0	0	506	512	
7	0	0	0	0	504	511	
8	0	0	0	0	506	513	
9	0	0	0	0	508	512	
10	0	0	0	0	507	513	
11	0	0	0	0	506	513	
12	0	0	0	0	505	513	
13	0	0	0	0	505	509	
14	0	0	0	0	505	511	
15	0	0	0	0	504	511	
0	0	0	0	0	507	513	
1	0	0	0	0	507	512	
2	0	0	0	0	504	511	
3	0	0	0	0	504	513	
4	0	0	0	0	504	512	
5	0	0	0	0	504	511	
6	0	0	0	0	507	510	
7	0	0	0	0	506	511	
8	0	0	0	0	505	511	
9	0	0	0	0	504	512	
10	0	0	0	0	507	511	
11	0	0	0	0	507	513	
12	0	0	0	0	505	511	
13	0	0	0	0	504	515	
14	0	0	0	0	504	514	
15	0	0	0	0	504	513	
0	0	0	0	0	507	511	
1	0	0	0	0	504	511	
2	0	0	0	0	504	510	
3	0	0	0	0	505	511	
4	0	0	0	0	503	508	
5	0	0	0	0	505	513	
6	0	0	0	0	505	516	
7	0	0	0	0	506	514	
8	0	0	0	0	504	513	
9	0	0	0	0	508	513	
10	0	0	0	0	506	511	
11	0	0	0	0	504	510	
12	0	0	0	0	506	511	
13	0	0	0	0	505	513	
14	0	0	0	0	505	513	
15	0	0	0	0	503	512	
0	0	0	0	0	505	513	
1	0	0	0	0	504	512	
2	0	0	0	0	505	512	
3	0	0	0	0	506	511	
4	0	0	0	0	505	511	
5	0	0	0	0	507	511	
6	0	0	0	0	504	512	
7	0	0	0	0	505	511	
8	0	0	0	0	507	511	
9	0	0	0	0	505	513	
10	0	0	0	0	505	513	
11	0	0	0	0	505	513	
12	0	0	0	0	507	513	
13	0	0	0	0	504	510	
14	0	0	0	0	505	511	
15	0	0	0	0	505	511	
0	0	0	0	0	505	514	
1	0	0	0	0	505	512	
2	0	0	0	0	505	512	
3	0	0	0	0	507	512	
4	0	0	0	0	505	512	
5	0	0	0	0	504	511	
6	0	0	0	0	505	512	
7	0	0	0	0	507	511	
8	0	0	0	0	506	512	
9	0	0	0	0	507	513	
10	0	0	0	0	505	509	
11	0	0	0	0	505	511	
12	0	0	0	0	507	511	
13	0	0	0	0	507	512	
14	0	0	0	0	505	511	
15	0	0	0	0	504	513	
0	0	0	0	0	508	511	
1	0	0	0	0	504	513	
2	0	0	0	0	503	512	
3	0	0	0	0	506	512	
4	0	0	0	0	506	512	
5	0	0	0	0	505	513	
6	0	0	0	0	506	514	
7	0	0	0	0	505	510	
8	0	0	0	0	506	511	
9	0	0	0	0	505	511	
10	0	0	0	0	503	512	
11	0	0	0	0	504	512	
12	0	0	0	0	505	510	
13	0	0	0	0	507	512	
14	0	0	0	0	505	512	
15	0	0	0	0	507	512	
0	0	0	0	0	507	508	
1	0	0	0	0	505	512	
2	0	0	0	0	506	513	
3	0	0	0	0	505	516	
4	0	0	0	0	506	513	
5	0	0	0	0	503	512	
6	0	0	0	0	505	514	
7	0	0	0	0	505	512	
8	0	0	0	0	506	510	
9	0	0	0	0	507	511	
10	0	0	0	0	505	511	
11	0	0	0	0	504	512	
12	0	0	0	0	505	513	
13	0	0	0	0	505	511	
14	0	0	0	0	504	512	
15	0	0	0	0	508	511	
0	0	0	0	0	505	511	
1	0	0	0	0	506	512	
2	0	0	0	0	507	513	
3	0	0	0	0	504	509	
4	0	0	0	0	503	512	
5	0	0	0	0	506	512	
6	0	0	0	0	507	513	
7	0	0	0	0	505	513	
8	0	0	0	0	505	512	
9	0	0	0	0	506	512	
10	0	0	0	0	506	512	
11	0	0	0	0	506	511	
12	0	0	0	0	505	512	
13	0	0	0	0	505	512	
14	0	0	0	0	504	515	
15	0	0	0	0	505	513	
0	0	0	0	0	505	515	
1	0	0	0	0	505	510	
2	0	0	0	0	505	509	
3	0	0	0	0	504	512	
4	0	0	0	0	505	510	
5	0	0	0	0	504	509	
6	0	0	0	0	508	513	
7	0	0	0	0	506	511	
8	0	0	0	0	506	511	
9	0	0	0	0	506	512	
10	0	0	0	0	506	514	
11	0	0	0	0	506	512	
12	0	0	0	0	506	510	
13	0	0	0	0	504	512	
14	0	0	0	0	506	511	
15	0	0	0	0	506	511	
0	0	0	0	0	504	512	
1	0	0	0	0	505	513	
2	0	0	0	0	504	512	
3	0	0	0	0	506	513	
4	0	0	0	0	506	511	
5	0	0	0	0	506	510	
6	0	0	0	0	504	512	
7	0	0	0	0	505	509	
8	0	0	0	0	505	513	
9	0	0	0	0	504	513	
10	0	0	0	0	504	512	
11	0	0	0	0	507	512	
12	0	0	0	0	504	512	
13	0	0	0	0	508	512	
14	0	0	0	0	508	512	
15	0	0	0	0	506	511	
0	0	0	0	0	506	513	
1	0	0	0	0	504	511	
2	0	0	0	0	507	512	
3	0	0	0	0	504	512	
4	0	0	0	0	505	511	
5	0	0	0	0	504	511	
6	0	0	0	0	507	511	
7	0	0	0	0	506	514	
8	0	0	0	0	505	513	
9	0	0	0	0	504	511	
10	0	0	0	0	506	511	
11	0	0	0	0	509	511	
12	0	0	0	0	508	512	
13	0	0	0	0	505	512	
14	0	0	0	0	504	512	
15	0	0	0	0	505	512	
0	0	0	0	0	507	511	
1	0	0	0	0	505	510	
2	0	0	0	0	506	514	
3	0	0	0	0	505	515	
4	0	0	0	0	504	513	
5	0	0	0	0	504	510	
6	0	0	0	0	505	512	
7	0	0	0	0	504	510	
8	0	0	0	0	507	512	
9	0	0	0	0	504	512	
10	0	0	0	0	505	512	
11	0	0	0	0	505	512	
12	0	0	0	0	506	510	
13	0	0	0	0	505	510	
14	0	0	0	0	505	511	
15	0	0	0	0	505	510	
0	0	0	0	0	507	513	
1	0	0	0	0	505	513	
2	0	0	0	0	505	512	
3	0	0	0	0	505	511	
4	0	0	0	0	505	511	
5	0	0	0	0	504	511	
6	0	0	0	0	503	512	
7	0	0	0	0	505	513	
8	0	0	0	0	507	514	
9	0	0	0	0	505	511	
10	0	0	0	0	507	510	
11	0	0	0	0	505	511	
12	0	0	0	0	507	511	
13	0	0	0	0	506	512	
14	0	0	0	0	507	513	
15	0	0	0	0	504	513	
0	0	0	0	0	504	512	
1	0	0	0	0	505	513	
2	0	0	0	0	507	512	
3	0	0	0	0	505	511	
4	0	0	0	0	507	514	
5	0	0	0	0	507	512	
6	0	0	0	0	505	509	
7	0	0	0	0	504	510	
8	0	0	0	0	504	511	
9	0	0	0	0	506	514	
10	0	0	0	0	505	512	
11	0	0	0	0	507	511	
12	0	0	0	0	504	512	
13	0	0	0	0	508	513	
14	0	0	0	0	504	510	
15	0	0	0	0	505	511	
0	0	0	0	0	507	511	
1	0	0	0	0	504	512	
2	0	0	0	0	504	510	
3	0	0	0	0	507	512	
4	0	0	0	0	504	512	
5	0	0	0	0	503	515	
6	0	0	0	0	504	512	
7	0	0	0	0	507	512	
8	0	0	0	0	505	513	
9	0	0	0	0	504	512	
10	0	0	0	0	505	512	
11	0	0	0	0	506	511	
12	0	0	0	0	507	512	
13	0	0	0	0	507	511	
14	0	0	0	0	504	513	
15	0	0	0	0	505	511	
0	0	0	0	0	505	511	
1	0	0	0	0	505	511	
2	0	0	0	0	506	512	
3	0	0	0	0	505	511	
4	0	0	0	0	504	512	
5	0	0	0	0	504	515	
6	0	0	0	0	505	512	
7	0	0	0	0	505	512	
8	0	0	0	0	505	511	
9	0	0	0	0	505	512	
10	0	0	0	0	504	513	
11	0	0	0	0	505	511	
12	0	0	0	0	506	513	
13	0	0	0	0	506	512	
14	0	0	0	0	505	510	
15	0	0	0	0	505	513	
0	0	0	0	0	505	514	
1	0	0	0	0	505	511	
2	0	0	0	0	507	512	
3	0	0	0	0	505	512	
4	0	0	0	0	504	511	
5	0	0	0	0	506	511	
6	0	0	0	0	507	511	
7	0	0	0	0	505	511	
8	0	0	0	0	506	510	
9	0	0	0	0	506	513	
10	0	0	0	0	507	512	
11	0	0	0	0	504	512	
12	0	0	0	0	504	511	
13	0	0	0	0	507	512	
14	0	0	0	0	507	511	
15	0	0	0	0	506	512	
0	0	0	0	0	504	511	
1	0	0	0	0	505	512	
2	0	0	0	0	505	510	
3	0	0	0	0	505	512	
4	0	0	0	0	505	510	
5	0	0	0	0	504	513	
6	0	0	0	0	505	513	
7	0	0	0	0	504	513	
8	0	0	0	0	507	514	
9	0	0	0	0	505	512	
10	0	0	0	0	506	511	
11	0	0	0	0	504	511	
12	0	0	0	0	504	511	
13	0	0	0	0	505	509	
14	0	0	0	0	507	510	
15	0	0	0	0	506	508	
0	0	0	0	0	505	512	
1	0	0	0	0	505	512	
2	0	0	0	0	506	512	
3	0	0	0	0	506	511	
4	0	0	0	0	505	514	
5	0	0	0	0	506	513	
6	0	0	0	0	505	513	
7	0	0	0	0	506	512	
8	0	0	0	0	506	511	
9	0	0	0	0	505	511	
10	0	0	0	0	504	511	
11	0	0	0	0	505	513	
12	0	0	0	0	505	513	
13	0	0	0	0	505	513	
14	0	0	0	0	506	513	
15	0	0	0	0	507	515	
0	0	0	0	0	506	512	
1	0	0	0	0	504	511	
2	0	0	0	0	506	512	
3	0	0	0	0	507	513	
4	0	0	0	0	505	510	
5	0	0	0	0	504	512	
6	0	0	0	0	505	513	
7	0	0	0	0	505	512	
8	0	0	0	0	506	511	
9	0	0	0	0	505	510	
10	0	0	0	0	505	511	
11	0	0	0	0	504	510	
12	0	0	0	0	505	508	
13	0	0	0	0	507	511	
14	0	0	0	0	505	511	
15	0	0	0	0	505	510	
0	0	0	0	0	505	510	
1	0	0	0	0	505	511	
2	0	0	0	0	506	513	
3	0	0	0	0	507	515	
4	0	0	0	0	505	513	
5	0	0	0	0	504	513	
6	0	0	0	0	505	511	
7	0	0	0	0	504	511	
8	0	0	0	0	505	510	
9	0	0	0	0	507	512	
10	0	0	0	0	504	512	
11	0	0	0	0	505	509	
12	0	0	0	0	507	513	
13	0	0	0	0	505	514	
14	0	0	0	0	505	513	
15	0	0	0	0	504	512	
0	0	0	0	0	504	511	
1	0	0	0	0	506	510	
2	0	0	0	0	505	512	
3	0	0	0	0	504	510	
4	0	0	0	0	506	511	
5	0	0	0	0	505	512	
6	0	0	0	0	505	512	
7	0	0	0	0	506	513	
8	0	0	0	0	504	514	
9	0	0	0	0	507	512	
10	0	0	0	0	508	515	
11	0	0	0	0	505	511	
12	0	0	0	0	505	510	
13	0	0	0	0	505	513	
14	0	0	0	0	505	512	
15	0	0	0	0	506	512	
0	0	0	0	0	505	513	
1	0	0	0	0	506	511	
2	0	0	0	0	504	511	
3	0	0	0	0	506	510	
4	0	0	0	0	504	511	
5	0	0	0	0	505	512	
6	0	0	0	0	504	514	
7	0	0	0	0	506	512	
8	0	0	0	0	506	510	
9	0	0	0	0	505	512	
10	0	0	0	0	506	511	
11	0	0	0	0	504	513	
12	0	0	0	0	506	510	
13	0	0	0	0	504	514	
14	0	0	0	0	506	512	
15	0	0	0	0	507	512	
0	0	0	0	0	506	514	
1	0	0	0	0	504	511	
2	0	0	0	0	505	510	
3	0	0	0	0	505	512	
4	0	0	0	0	504	511	
5	0	0	0	0	505	513	
6	0	0	0	0	504	509	
7	0	0	0	0	507	511	
8	0	0	0	0	505	512	
9	0	0	0	0	504	514	
10	0	0	0	0	506	514	
11	0	0	0	0	506	512	
12	0	0	0	0	505	513	
13	0	0	0	0	507	513	
14	0	0	0	0	505	511	
15	0	0	0	0	508	509	
0	0	0	0	0	504	509	
1	0	0	0	0	504	511	
2	0	0	0	0	507	512	
3	0	0	0	0	506	513	
4	0	0	0	0	505	511	
5	0	0	0	0	505	509	
6	0	0	0	0	505	511	
7	0	0	0	0	505	515	
8	0	0	0	0	505	513	
9	0	0	0	0	503	512	
10	0	0	0	0	505	512	
11	0	0	0	0	505	511	
12	0	0	0	0	504	510	
13	0	0	0	0	507	512	
14	0	0	0	0	505	513	
15	0	0	0	0	507	511	
0	0	0	0	0	506	512	
1	0	0	0	0	506	511	
2	0	0	0	0	505	512	
3	0	0	0	0	504	513	
4	0	0	0	0	502	514	
5	0	0	0	0	504	512	
6	0	0	0	0	506	512	
7	0	0	0	0	507	510	
8	0	0	0	0	507	513	
9	0	0	0	0	504	511	
10	0	0	0	0	504	512	
11	0	0	0	0	507	512	
12	0	0	0	0	506	513	
13	0	0	0	0	506	511	
14	0	0	0	0	504	510	
15	0	0	0	0	507	511	
0	0	0	0	0	505	510	
1	0	0	0	0	506	512	
2	0	0	0	0	504	512	
3	0	0	0	0	505	511	
4	0	0	0	0	504	513	
5	0	0	0	0	506	510	
6	0	0	0	0	506	514	
7	0	0	0	0	506	511	
8	0	0	0	0	504	512	
9	0	0	0	0	505	511	
10	0	0	0	0	507	512	
11	0	0	0	0	504	511	
12	0	0	0	0	506	511	
13	0	0	0	0	505	512	
14	0	0	0	0	508	511	
15	0	0	0	0	507	511	
0	0	0	0	0	504	512	
1	0	0	0	0	504	513	
2	0	0	0	0	504	515	
3	0	0	0	0	506	515	
4	0	0	0	0	504	513	
5	0	0	0	0	505	512	
6	0	0	0	0	506	510	
7	0	0	0	0	505	511	
8	0	0	0	0	507	511	
9	0	0	0	0	505	512	
10	0	0	0	0	505	512	
11	0	0	0	0	504	512	
12	0	0	0	0	506	513	
13	0	0	0	0	505	512	
14	0	0	0	0	504	511	
15	0	0	0	0	505	511	
0	0	0	0	0	504	511	
1	0	0	0	0	505	511	
2	0	0	0	0	507	511	
3	0	0	0	0	505	510	
4	0	0	0	0	507	510	
5	0	0	0	0	507	512	
6	0	0	0	0	506	511	
7	0	0	0	0	505	511	
8	0	0	0	0	505	513	
9	0	0	0	0	505	511	
10	0	0	0	0	504	514	
11	0	0	0	0	507	510	
12	0	0	0	0	505	514	
13	0	0	0	0	504	514	
14	0	0	0	0	505	515	
15	0	0	0	0	504	512	
0	0	0	0	0	505	513	
1	0	0	0	0	505	512	
2	0	0	0	0	505	510	
3	0	0	0	0	505	512	
4	0	0	0	0	506	511	
5	0	0	0	0	505	510	
6	0	0	0	0	505	513	
7	0	0	0	0	504	513	
8	0	0	0	0	507	510	
9	0	0	0	0	507	510	
10	0	0	0	0	507	510	
11	0	0	0	0	505	511	
12	0	0	0	0	503	511	
13	0	0	0	0	505	513	
14	0	0	0	0	504	513	
15	0	0	0	0	505	512	
0	0	0	0	0	505	513	
1	0	0	0	0	505	512	
2	0	0	0	0	506	512	
3	0	0	0	0	504	510	
4	0	0	0	0	505	510	
5	0	0	0	0	504	513	
6	0	0	0	0	505	513	
7	0	0	0	0	504	513	
8	0	0	0	0	504	512	
9	0	0	0	0	507	513	
10	0	0	0	0	504	512	
11	0	0	0	0	505	511	
12	0	0	0	0	507	511	
13	0	0	0	0	507	513	
14	0	0	0	0	506	511	
15	0	0	0	0	504	514	
0	0	0	0	0	505	512	
1	0	0	0	0	506	513	
2	0	0	0	0	506	514	
3	0	0	0	0	504	513	
4	0	0	0	0	505	513	
5	0	0	0	0	506	512	
6	0	0	0	0	505	509	
7	0	0	0	0	507	511	
8	0	0	0	0	507	513	
9	0	0	0	0	507	510	
10	0	0	0	0	503	512	
11	0	0	0	0	505	514	
12	0	0	0	0	505	512	
13	0	0	0	0	506	511	
14	0	0	0	0	504	511	
15	0	0	0	0	504	512	
0	0	0	0	0	504	511	
1	0	0	0	0	506	512	
2	0	0	0	0	505	511	
3	0	0	0	0	506	514	
4	0	0	0	0	504	512	
5	0	0	0	0	505	511	
6	0	0	0	0	505	512	
7	0	0	0	0	505	511	
8	0	0	0	0	505	508	
9	0	0	0	0	508	511	
10	0	0	0	0	505	513	
11	0	0	0	0	507	512	
12	0	0	0	0	504	513	
13	0	0	0	0	505	511	
14	0	0	0	0	504	511	
15	0	0	0	0	507	510	
0	0	0	0	0	504	512	
1	0	0	0	0	504	512	
2	0	0	0	0	506	511	
3	0	0	0	0	506	511	
4	0	0	0	0	504	513	
5	0	0	0	0	503	510	
6	0	0	0	0	505	512	
7	0	0	0	0	506	512	
8	0	0	0	0	505	511	
9	0	0	0	0	505	512	
10	0	0	0	0	505	513	
11	0	0	0	0	505	515	
12	0	0	0	0	504	513	
13	0	0	0	0	505	512	
14	0	0	0	0	507	512	
15	0	0	0	0	505	512	
0	0	0	0	0	506	512	
1	0	0	0	0	507	511	
2	0	0	0	0	505	513	
3	0	0	0	0	505	512	
4	0	0	0	0	507	511	
5	0	0	0	0	504	511	
6	0	0	0	0	505	512	
7	0	0	0	0	505	513	
8	0	0	0	0	505	513	
9	0	0	0	0	506	511	
10	0	0	0	0	504	511	
11	0	0	0	0	504	511	
12	0	0	0	0	505	513	
13	0	0	0	0	505	513	
14	0	0	0	0	504	511	
15	0	0	0	0	504	511	
0	0	0	0	0	507	511	
1	0	0	0	0	505	511	
2	0	0	0	0	506	511	
3	0	0	0	0	506	513	
4	0	0	0	0	506	512	
5	0	0	0	0	505	512	
6	0	0	0	0	508	511	
7	0	0	0	0	507	512	
8	0	0	0	0	504	511	
9	0	0	0	0	504	513	
10	0	0	0	0	505	512	
11	0	0	0	0	504	515	
12	0	0	0	0	506	513	
13	0	0	0	0	504	513	
14	0	0	0	0	506	512	
15	0	0	0	0	507	513	
0	0	0	0	0	505	514	
1	0	0	0	0	505	513	
2	0	0	0	0	507	511	
3	0	0	0	0	506	510	
4	0	0	0	0	504	512	
5	0	0	0	0	507	513	
6	0	0	0	0	507	513	
7	0	0	0	0	506	512	
8	0	0	0	0	507	511	
9	0	0	0	0	506	512	
10	0	0	0	0	507	512	
11	0	0	0	0	505	511	
12	0	0	0	0	506	510	
13	0	0	0	0	506	510	
14	0	0	0	0	505	511	
15	0	0	0	0	504	512	
0	0	0	0	0	504	510	
1	0	0	0	0	505	509	
2	0	0	0	0	504	512	
3	0	0	0	0	506	513	
4	0	0	0	0	505	512	
5	0	0	0	0	507	511	
6	0	0	0	0	508	512	
7	0	0	0	0	505	513	
8	0	0	0	0	508	512	
9	0	0	0	0	508	511	
10	0	0	0	0	506	512	
11	0	0	0	0	504	512	
12	0	0	0	0	502	511	
13	0	0	0	0	502	512	
14	0	0	0	0	504	511	
15	0	0	0	0	505	511	
0	0	0	0	0	508	514	
1	0	0	0	0	508	512	
2	0	0	0	0	505	511	
3	0	0	0	0	504	511	
4	0	0	0	0	504	511	
5	0	0	0	0	506	511	
6	0	0	0	0	507	511	
7	0	0	0	0	507	511	
8	0	0	0	0	504	511	
9	0	0	0	0	504	514	
10	0	0	0	0	505	512	
11	0	0	0	0	504	513	
12	0	0	0	0	505	512	
13	0	0	0	0	504	513	
14	0	0	0	0	505	511	
15	0	0	0	0	508	513	
0	0	0	0	0	508	511	
1	0	0	0	0	509	513	
2	0	0	0	0	511	513	
3	0	0	0	0	507	511	
4	0	0	0	0	507	510	
5	0	0	0	0	508	512	
6	0	0	0	0	506	512	
7	0	0	0	0	502	512	
8	0	0	0	0	497	511	
9	0	0	0	0	500	512	
10	0	0	0	0	500	509	
11	0	0	0	0	505	513	
12	0	0	0	0	504	513	
13	0	0	0	0	508	512	
14	0	0	0	0	507	513	
15	0	0	0	0	507	511	
0	0	0	0	0	504	511	
1	0	0	0	0	504	511	
2	0	0	0	0	504	512	
3	0	0	0	0	507	514	
4	0	0	0	0	509	512	
5	0	0	0	0	507	512	
6	0	0	0	0	508	511	
7	0	0	0	0	506	511	
8	0	0	0	0	505	513	
9	0	0	0	0	506	510	
10	0	0	0	0	506	512	
11	0	0	0	0	506	511	
12	0	0	0	0	504	511	
13	0	0	0	0	504	514	
14	0	0	0	0	505	511	
15	0	0	0	0	505	511	
0	0	0	0	0	505	508	
1	0	0	0	0	505	510	
2	0	0	0	0	505	511	
3	0	0	0	0	505	512	
4	0	0	0	0	506	512	
5	0	0	0	0	506	512	
6	0	0	0	0	505	513	
7	0	0	0	0	506	512	
8	0	0	0	0	506	514	
9	0	0	0	0	505	513	
10	0	0	0	0	504	511	
11	0	0	0	0	505	509	
12	0	0	0	0	503	510	
13	0	0	0	0	505	511	
14	0	0	0	0	507	513	
15	0	0	0	0	506	512	
0	0	0	0	0	505	513	
1	0	0	0	0	507	512	
2	0	0	0	0	508	512	
3	0	0	0	0	506	514	
4	0	0	0	0	507	511	
5	0	0	0	0	505	512	
6	0	0	0	0	504	510	
7	0	0	0	0	504	512	
8	0	0	0	0	505	513	
9	0	0	0	0	504	512	
10	0	0	0	0	505	512	
11	0	0	0	0	505	515	
12	0	0	0	0	505	512	
13	0	0	0	0	504	510	
14	0	0	0	0	505	510	
15	0	0	0	0	505	510	
0	0	0	0	0	505	511	
1	0	0	0	0	507	512	
2	0	0	0	0	506	512	
3	0	0	0	0	505	512	
4	0	0	0	0	505	512	
5	0	0	0	0	504	512	
6	0	0	0	0	506	513	
7	0	0	0	0	505	512	
8	0	0	0	0	504	511	
9	0	0	0	0	505	511	
10	0	0	0	0	505	510	
11	0	0	0	0	506	513	
12	0	0	0	0	507	512	
13	0	0	0	0	505	511	
14	0	0	0	0	505	513	
15	0	0	0	0	506	512	
0	0	0	0	0	507	512	
1	0	0	0	0	507	511	
2	0	0	0	0	506	515	
3	0	0	0	0	507	513	
4	0	0	0	0	505	512	
5	0	0	0	0	507	513	
6	0	0	0	0	507	511	
7	0	0	0	0	507	513	
8	0	0	0	0	508	511	
9	0	0	0	0	504	511	
10	0	0	0	0	504	510	
11	0	0	0	0	503	511	
12	0	0	0	0	502	510	
13	0	0	0	0	502	512	
14	0	0	0	0	503	515	
15	0	0	0	0	504	514	
0	0	0	0	0	507	512	
1	0	0	0	0	506	514	
2	0	0	0	0	504	513	
3	0	0	0	0	508	513	
4	0	0	0	0	506	512	
5	0	0	0	0	508	512	
6	0	0	0	0	508	513	
7	0	0	0	0	507	511	
8	0	0	0	0	508	511	
9	0	0	0	0	508	510	
10	0	0	0	0	505	510	
11	0	0	0	0	501	513	
12	0	0	0	0	503	513	
13	0	0	0	0	503	512	
14	0	0	0	0	506	512	
15	0	0	0	0	504	510	
0	0	0	0	0	503	512	
1	0	0	0	0	504	512	
2	0	0	0	0	503	512	
3	0	0	0	0	506	513	
4	0	0	0	0	503	510	
5	0	0	0	0	503	511	
6	0	0	0	0	504	511	
7	0	0	0	0	508	511	
8	0	0	0	0	509	512	
9	0	0	0	0	507	512	
10	0	0	0	0	508	512	
11	0	0	0	0	511	513	
12	0	0	0	0	507	513	
13	0	0	0	0	506	512	
14	0	0	0	0	505	513	
15	0	0	0	0	505	512	
0	0	0	0	0	507	513	
1	0	0	0	0	504	510	
2	0	0	0	0	504	512	
3	0	0	0	0	507	510	
4	0	0	0	0	505	512	
5	0	0	0	0	506	513	
6	0	0	0	0	504	512	
7	0	0	0	0	503	511	
8	0	0	0	0	504	509	
9	0	0	0	0	504	513	
10	0	0	0	0	508	512	
11	0	0	0	0	507	511	
12	0	0	0	0	507	512	
13	0	0	0	0	503	512	
14	0	0	0	0	504	511	
15	0	0	0	0	507	511	
0	0	0	0	0	504	511	
1	0	0	0	0	507	510	
2	0	0	0	0	504	511	
3	0	0	0	0	505	510	
4	0	0	0	0	506	514	
5	0	0	0	0	499	511	
6	0	0	0	0	499	513	
7	0	0	0	0	505	511	
8	0	0	0	0	506	511	
9	0	0	0	0	507	510	
10	0	0	0	0	508	512	
11	0	0	0	0	510	513	
12	0	0	0	0	511	511	
13	0	0	0	0	513	512	
14	0	0	0	0	512	514	
15	0	0	0	0	505	513	
0	0	0	0	0	501	511	
1	0	0	0	0	501	512	
2	0	0	0	0	503	512	
3	0	0	0	0	505	512	
4	0	0	0	0	504	513	
5	0	0	0	0	505	514	
6	0	0	0	0	507	515	
7	0	0	0	0	509	511	
8	0	0	0	0	507	512	
9	0	0	0	0	506	511	
10	0	0	0	0	507	512	
11	0	0	0	0	505	510	
12	0	0	0	0	507	508	
13	0	0	0	0	509	508	
14	0	0	0	0	506	512	
15	0	0	0	0	503	511	
0	0	0	0	0	501	513	
1	0	0	0	0	504	511	
2	0	0	0	0	505	513	
3	0	0	0	0	505	513	
4	0	0	0	0	506	515	
5	0	0	0	0	501	511	
6	0	0	0	0	498	511	
7	0	0	0	0	500	512	
8	0	0	0	0	502	512	
9	0	0	0	0	508	513	
10	0	0	0	0	510	515	
11	0	0	0	0	504	511	
12	0	0	0	0	501	508	
13	0	0	0	0	506	510	
14	0	0	0	0	508	511	
15	0	0	0	0	507	511	
0	0	0	0	0	508	512	
1	0	0	0	0	507	513	
2	0	0	0	0	504	512	
3	0	0	0	0	507	513	
4	0	0	0	0	505	512	
5	0	0	0	0	507	511	
6	0	0	0	0	505	514	
7	0	0	0	0	505	511	
8	0	0	0	0	505	514	
9	0	0	0	0	507	512	
10	0	0	0	0	507	511	
11	0	0	0	0	504	513	
12	0	0	0	0	497	515	
13	0	0	0	0	495	513	
14	0	0	0	0	498	512	
15	0	0	0	0	506	511	
0	0	0	0	0	512	511	
1	0	0	0	0	513	511	
2	0	0	0	0	515	508	
3	0	0	0	0	519	508	
4	0	0	0	0	522	510	
5	0	0	0	0	519	512	
6	0	0	0	0	504	512	
7	0	0	0	0	493	513	
8	0	0	0	0	492	513	
9	0	0	0	0	500	512	
10	0	0	0	0	502	514	
11	0	0	0	0	504	513	
12	0	0	0	0	504	512	
13	0	0	0	0	505	511	
14	0	0	0	0	504	511	
15	0	0	0	0	507	513	
0	0	0	0	0	504	513	
1	0	0	0	0	506	511	
2	0	0	0	0	511	510	
3	0	0	0	0	510	512	
4	0	0	0	0	509	510	
5	0	0	0	0	508	513	
6	0	0	0	0	504	512	
7	0	0	0	0	506	512	
8	0	0	0	0	501	512	
9	0	0	0	0	495	511	
10	0	0	0	0	496	512	
11	0	0	0	0	501	512	
12	0	0	0	0	505	512	
13	0	0	0	0	505	510	
14	0	0	0	0	505	513	
15	0	0	0	0	506	512	
0	0	0	0	0	507	515	
1	0	0	0	0	508	515	
2	0	0	0	0	506	510	
3	0	0	0	0	508	512	
4	0	0	0	0	507	512	
5	0	0	0	0	504	510	
6	0	0	0	0	507	511	
7	0	0	0	0	507	512	
8	0	0	0	0	509	509	
9	0	0	0	0	507	509	
10	0	0	0	0	511	511	
11	0	0	0	0	512	511	
12	0	0	0	0	513	510	
13	0	0	0	0	512	513	
14	0	0	0	0	505	511	
15	0	0	0	0	495	511	
0	0	0	0	0	489	515	
1	0	0	0	0	492	514	
2	0	0	0	0	495	514	
3	0	0	0	0	492	511	
4	0	0	0	0	499	513	
5	0	0	0	0	511	513	
6	0	0	0	0	513	512	
7	0	0	0	0	511	513	
8	0	0	0	0	514	512	
9	0	0	0	0	514	508	
10	0	0	0	0	511	508	
11	0	0	0	0	515	512	
12	0	0	0	0	504	516	
13	0	0	0	0	507	515	
14	0	0	0	0	507	513	
15	0	0	0	0	505	510	
0	0	0	0	0	507	508	
1	0	0	0	0	509	507	
2	0	0	0	0	516	507	
3	0	0	0	0	504	512	
4	0	0	0	0	487	514	
5	0	0	0	0	476	515	
6	0	0	0	0	478	512	
7	0	0	0	0	487	512	
8	0	0	0	0	496	514	
9	0	0	0	0	507	513	
10	0	0	0	0	514	513	
11	0	0	0	0	529	512	
12	0	0	0	0	545	505	
13	0	0	0	0	552	508	
14	0	0	0	0	526	510	
15	0	0	0	0	508	510	
0	0	0	0	0	504	515	
1	0	0	0	0	503	513	
2	0	0	0	0	499	513	
3	0	0	0	0	494	512	
4	0	0	0	0	475	509	
5	0	0	0	0	477	511	
6	0	0	0	0	499	512	
7	0	0	0	0	512	514	
8	0	0	0	0	516	514	
9	0	0	0	0	521	511	
10	0	0	0	0	518	513	
11	0	0	0	0	515	516	
12	0	0	0	0	515	516	
13	0	0	0	0	512	512	
14	0	0	0	0	512	509	
15	0	0	0	0	506	511	
0	0	0	0	0	491	510	
1	0	0	0	0	482	513	
2	0	0	0	0	489	514	
3	0	0	0	0	498	512	
4	0	0	0	0	499	515	
5	0	0	0	0	494	515	
6	0	0	0	0	492	516	
7	0	0	0	0	496	514	
8	0	0	0	0	500	515	
9	0	0	0	0	493	517	
10	0	0	0	0	490	504	
11	0	0	0	0	510	505	
12	0	0	0	0	525	510	
13	0	0	0	0	524	511	
14	0	0	0	0	533	507	
15	0	0	0	0	529	512	
0	0	0	0	0	523	509	
1	0	0	0	0	504	505	
2	0	0	0	0	502	506	
3	0	0	0	0	483	504	
4	0	0	0	0	481	513	
5	0	0	0	0	503	516	
6	0	0	0	0	518	514	
7	0	0	0	0	518	512	
8	0	0	0	0	513	513	
9	0	0	0	0	505	516	
10	0	0	0	0	504	514	
11	0	0	0	0	501	514	
12	0	0	0	0	499	515	
13	0	0	0	0	498	514	
14	0	0	0	0	500	516	
15	0	0	0	0	503	516	
0	0	0	0	0	508	514	
1	0	0	0	0	521	515	
2	0	0	0	0	524	510	
3	0	0	0	0	519	511	
4	0	0	0	0	501	503	
5	0	0	0	0	508	510	
6	0	0	0	0	511	515	
7	0	0	0	0	510	514	
8	0	0	0	0	493	515	
9	0	0	0	0	486	516	
10	0	0	0	0	495	510	
11	0	0	0	0	497	510	
12	0	0	0	0	498	513	
13	0	0	0	0	497	511	
14	0	0	0	0	515	510	
15	0	0	0	0	528	511	
0	0	0	0	0	520	509	
1	0	0	0	0	483	504	
2	0	0	0	0	483	513	
3	0	0	0	0	515	519	
4	0	0	0	0	514	521	
5	0	0	0	0	493	508	
6	0	0	0	0	481	508	
7	0	0	0	0	499	521	
8	0	0	0	0	509	519	
9	0	0	0	0	518	511	
10	0	0	0	0	536	500	
11	0	0	0	0	511	499	
12	0	0	0	0	486	507	
13	0	0	0	0	495	511	
14	0	0	0	0	519	511	
15	0	0	0	0	495	514	
0	0	0	0	0	490	516	
1	0	0	0	0	511	515	
2	0	0	0	0	519	512	
3	0	0	0	0	512	509	
4	0	0	0	0	519	510	
5	0	0	0	0	515	516	
6	0	0	0	0	520	523	
7	0	0	0	0	510	513	
8	0	0	0	0	512	508	
9	0	0	0	0	524	513	
10	0	0	0	0	511	515	
11	0	0	0	0	487	504	
12	0	0	0	0	484	508	
13	0	0	0	0	510	510	
14	0	0	0	0	503	507	
15	0	0	0	0	487	504	
0	0	0	0	0	496	508	
1	0	0	0	0	512	510	
2	0	0	0	0	506	511	
3	0	0	0	0	480	511	
4	0	0	0	0	496	515	
5	0	0	0	0	504	515	
6	0	0	0	0	492	513	
7	0	0	0	0	498	512	
8	0	0	0	0	504	515	
9	0	0	0	0	523	515	
10	0	0	0	0	551	516	
11	0	0	0	0	548	511	
12	0	0	0	0	511	506	
13	0	0	0	0	473	507	
14	0	0	0	0	454	513	
15	0	0	0	0	480	521	
0	0	0	0	0	494	522	
1	0	0	0	0	499	507	
2	0	0	0	0	492	510	
3	0	0	0	0	513	526	
4	0	0	0	0	535	512	
5	0	0	0	0	518	509	
6	0	0	0	0	510	509	
7	0	0	0	0	512	510	
8	0	0	0	0	511	508	
9	0	0	0	0	523	511	
10	0	0	0	0	512	520	
11	0	0	0	0	494	512	
12	0	0	0	0	470	506	
13	0	0	0	0	464	508	
14	0	0	0	0	489	516	
15	0	0	0	0	515	511	
0	0	0	0	0	512	510	
1	0	0	0	0	527	516	
2	0	0	0	0	545	517	
3	0	0	0	0	533	509	
4	0	0	0	0	505	508	
5	0	0	0	0	489	513	
6	0	0	0	0	494	513	
7	0	0	0	0	509	515	
8	0	0	0	0	508	513	
9	0	0	0	0	503	508	
10	0	0	0	0	497	513	
11	0	0	0	0	482	515	
12	0	0	0	0	486	510	
13	0	0	0	0	486	508	
14	0	0	0	0	479	515	
15	0	0	0	0	500	517	
0	0	0	0	0	535	509	
1	0	0	0	0	572	502	
2	0	0	0	0	597	504	
3	0	0	0	0	566	508	
4	0	0	0	0	512	518	
5	0	0	0	0	476	520	
6	0	0	0	0	484	518	
7	0	0	0	0	498	517	
8	0	0	0	0	458	510	
9	0	0	0	0	452	507	
10	0	0	0	0	492	512	
11	0	0	0	0	513	518	
12	0	0	0	0	502	508	
13	0	0	0	0	498	506	
14	0	0	0	0	515	509	
15	0	0	0	0	521	506	
0	0	0	0	0	492	507	
1	0	0	0	0	475	512	
2	0	0	0	0	511	518	
3	0	0	0	0	522	522	
4	0	0	0	0	499	517	
5	0	0	0	0	491	510	
6	0	0	0	0	467	512	
7	0	0	0	0	453	514	
8	0	0	0	0	470	516	
9	0	0	0	0	523	520	
10	0	0	0	0	556	519	
11	0	0	0	0	551	509	
12	0	0	0	0	531	493	
13	0	0	0	0	487	492	
14	0	0	0	0	476	518	
15	0	0	0	0	504	520	
0	0	0	0	0	505	515	
1	0	0	0	0	532	510	
2	0	0	0	0	546	508	
3	0	0	0	0	527	511	
4	0	0	0	0	537	515	
5	0	0	0	0	491	514	
6	0	0	0	0	491	510	
7	0	0	0	0	507	507	
8	0	0	0	0	498	507	
9	0	0	0	0	472	515	
10	0	0	0	0	512	510	
11	0	0	0	0	537	506	
12	0	0	0	0	535	508	
13	0	0	0	0	476	503	
14	0	0	0	0	440	508	
15	0	0	0	0	447	525	
0	0	0	0	0	428	527	
1	0	0	0	0	475	525	
2	0	0	0	0	484	525	
3	0	0	0	0	538	510	
4	0	0	0	0	559	504	
5	0	0	0	0	623	507	
6	0	0	0	0	602	502	
7	0	0	0	0	563	499	
8	0	0	0	0	565	509	
9	0	0	0	0	542	521	
10	0	0	0	0	534	526	
11	0	0	0	0	494	525	
12	0	0	0	0	438	499	
13	0	0	0	0	411	512	
14	0	0	0	0	435	514	
15	0	0	0	0	456	496	
0	0	0	0	0	473	502	
1	0	0	0	0	484	508	
2	0	0	0	0	479	515	
3	0	0	0	0	475	531	
4	0	0	0	0	449	519	
5	0	0	0	0	510	508	
6	0	0	0	0	553	511	
7	0	0	0	0	575	514	
8	0	0	0	0	560	520	
9	0	0	0	0	524	511	
10	0	0	0	0	467	508	
11	0	0	0	0	474	519	
12	0	0	0	0	535	507	
13	0	0	0	0	600	503	
14	0	0	0	0	631	507	
15	0	0	0	0	548	510	
0	0	0	0	0	447	505	
1	0	0	0	0	462	518	
2	0	0	0	0	465	519	
3	0	0	0	0	417	534	
4	0	0	0	0	412	495	
5	0	0	0	0	457	498	
6	0	0	0	0	534	502	
7	0	0	0	0	558	498	
8	0	0	0	0	533	514	
9	0	0	0	0	502	512	
10	0	0	0	0	487	510	
11	0	0	0	0	460	507	
12	0	0	0	0	467	503	
13	0	0	0	0	500	505	
14	0	0	0	0	509	532	
15	0	0	0	0	524	530	
0	0	0	0	0	615	507	
1	0	0	0	0	603	509	
2	0	0	0	0	539	509	
3	0	0	0	0	509	523	
4	0	0	0	0	457	524	
5	0	0	0	0	354	538	
6	0	0	0	0	365	527	
7	0	0	0	0	461	515	
8	0	0	0	0	494	511	
9	0	0	0	0	565	507	
10	0	0	0	0	648	499	
11	0	0	0	0	671	492	
12	0	0	0	0	593	485	
13	0	0	0	0	599	497	
14	0	0	0	0	541	508	
15	0	0	0	0	449	525	
0	0	0	0	0	451	524	
1	0	0	0	0	435	504	
2	0	0	0	0	380	502	
3	0	0	0	0	401	510	
4	0	0	0	0	415	517	
5	0	0	0	0	455	524	
6	0	0	0	0	455	528	
7	0	0	0	0	542	529	
8	0	0	0	0	623	527	
9	0	0	0	0	652	495	
10	0	0	0	0	670	497	
11	0	0	0	0	615	516	
12	0	0	0	0	512	515	
13	0	0	0	0	411	511	
14	0	0	0	0	331	511	
15	0	0	0	0	339	504	
0	0	0	0	0	472	517	
1	0	0	0	0	531	512	
2	0	0	0	0	551	517	
3	0	0	0	0	578	511	
4	0	0	0	0	596	504	
5	0	0	0	0	475	512	
6	0	0	0	0	415	505	
7	0	0	0	0	410	504	
8	0	0	0	0	462	501	
9	0	0	0	0	523	501	
10	0	0	0	0	579	488	
11	0	0	0	0	627	513	
12	0	0	0	0	670	535	
13	0	0	0	0	576	537	
14	0	0	0	0	464	528	
15	0	0	0	0	435	518	
0	0	0	0	0	412	522	
1	0	0	0	0	395	524	
2	0	0	0	0	492	494	
3	0	0	0	0	517	488	
4	0	0	0	0	507	480	
5	0	0	0	0	434	473	
6	0	0	0	0	447	516	
7	0	0	0	0	514	520	
8	0	0	0	0	568	516	
9	0	0	0	0	633	532	
10	0	0	0	0	582	542	
11	0	0	0	0	502	530	
12	0	0	0	0	499	510	
13	0	0	0	0	409	509	
14	0	0	0	0	428	529	
15	0	0	0	0	482	517	
0	0	0	0	0	539	523	
1	0	0	0	0	532	519	
2	0	0	0	0	439	516	
3	0	0	0	0	463	517	
4	0	0	0	0	500	519	
5	0	0	0	0	529	488	
6	0	0	0	0	537	492	
7	0	0	0	0	548	496	
8	0	0	0	0	563	500	
9	0	0	0	0	566	507	
10	0	0	0	0	538	515	
11	0	0	0	0	552	502	
12	0	0	0	0	576	507	
13	0	0	0	0	522	513	
14	0	0	0	0	492	523	
15	0	0	0	0	540	527	
0	0	0	0	0	450	512	
1	0	0	0	0	256	506	
2	0	0	0	0	254	520	
3	0	0	0	0	351	513	
4	0	0	0	0	435	505	
5	0	0	0	0	496	470	
6	0	0	0	0	572	502	
7	0	0	0	0	728	523	
8	0	0	0	0	680	518	
9	0	0	0	0	632	519	
10	0	0	0	0	583	519	
11	0	0	0	0	600	524	
12	0	0	0	0	598	520	
13	0	0	0	0	610	519	
14	0	0	0	0	559	508	
15	0	0	0	0	485	512	
0	0	0	0	0	397	502	
1	0	0	0	0	354	510	
2	0	0	0	0	420	519	
3	0	0	0	0	448	517	
4	0	0	0	0	459	519	
5	0	0	0	0	512	518	
6	0	0	0	0	537	519	
7	0	0	0	0	450	529	
8	0	0	0	0	448	507	
9	0	0	0	0	430	479	
10	0	0	0	0	385	506	
11	0	0	0	0	407	515	
12	0	0	0	0	460	528	
13	0	0	0	0	527	488	
14	0	0	0	0	540	490	
15	0	0	0	0	531	511	
0	0	0	0	0	655	509	
1	0	0	0	0	707	508	
2	0	0	0	0	645	520	
3	0	0	0	0	575	519	
4	0	0	0	0	486	527	
5	0	0	0	0	433	515	
6	0	0	0	0	476	504	
7	0	0	0	0	410	507	
8	0	0	0	0	413	508	
9	0	0	0	0	512	522	
10	0	0	0	0	513	537	
11	0	0	0	0	454	532	
12	0	0	0	0	541	508	
13	0	0	0	0	487	503	
14	0	0	0	0	489	486	
15	0	0	0	0	597	486	
0	0	0	0	0	695	494	
1	0	0	0	0	605	514	
2	0	0	0	0	439	507	
3	0	0	0	0	431	515	
4	0	0	0	0	367	477	
5	0	0	0	0	389	494	
6	0	0	0	0	454	555	
7	0	0	0	0	587	564	
8	0	0	0	0	568	539	
9	0	0	0	0	539	502	
10	0	0	0	0	535	482	
11	0	0	0	0	478	516	
12	0	0	0	0	474	510	
13	0	0	0	0	476	502	
14	0	0	0	0	434	518	
15	0	0	0	0	460	513	
0	0	0	0	0	524	527	
1	0	0	0	0	580	525	
2	0	0	0	0	536	506	
3	0	0	0	0	462	502	
4	0	0	0	0	444	520	
5	0	0	0	0	483	515	
6	0	0	0	0	514	534	
7	0	0	0	0	617	508	
8	0	0	0	0	673	489	
9	0	0	0	0	603	488	
10	0	0	0	0	436	489	
11	0	0	0	0	428	514	
12	0	0	0	0	478	510	
13	0	0	0	0	486	524	
14	0	0	0	0	447	537	
15	0	0	0	0	417	515	
0	0	0	0	0	371	512	
1	0	0	0	0	409	535	
2	0	0	0	0	528	519	
3	0	0	0	0	721	490	
4	0	0	0	0	819	482	
5	0	0	0	0	726	508	
6	0	0	0	0	562	491	
7	0	0	0	0	451	536	
8	0	0	0	0	365	504	
9	0	0	0	0	374	487	
10	0	0	0	0	417	480	
11	0	0	0	0	460	529	
12	0	0	0	0	457	516	
13	0	0	0	0	451	528	
14	0	0	0	0	420	533	
15	0	0	0	0	448	548	
0	0	0	0	0	388	495	
1	0	0	0	0	347	509	
2	0	0	0	0	517	534	
3	0	0	0	0	664	518	
4	0	0	0	0	727	525	
5	0	0	0	0	713	507	
6	0	0	0	0	705	500	
7	0	0	0	0	607	515	
8	0	0	0	0	482	498	
9	0	0	0	0	339	487	
10	0	0	0	0	367	505	
11	0	0	0	0	299	527	
12	0	0	0	0	336	525	
13	0	0	0	0	361	523	
14	0	0	0	0	496	510	
15	0	0	0	0	553	500	
0	0	0	0	0	617	483	
1	0	0	0	0	616	502	
2	0	0	0	0	743	514	
3	0	0	0	0	762	492	
4	0	0	0	0	568	489	
5	0	0	0	0	385	514	
6	0	0	0	0	371	540	
7	0	0	0	0	394	504	
8	0	0	0	0	549	503	
9	0	0	0	0	572	559	
10	0	0	0	0	545	587	
11	0	0	0	0	428	521	
12	0	0	0	0	312	497	
13	0	0	0	0	373	513	
14	0	0	0	0	484	489	
15	0	0	0	0	602	469	
0	0	0	0	0	707	462	
1	0	0	0	0	620	437	
2	0	0	0	0	515	457	
3	0	0	0	0	495	503	
4	0	0	0	0	551	542	
5	0	0	0	0	453	561	
6	0	0	0	0	447	616	
7	0	0	0	0	390	596	
8	0	0	0	0	370	519	
9	0	0	0	0	390	508	
10	0	0	0	0	558	495	
11	0	0	0	0	532	490	
12	0	0	0	0	590	526	
13	0	0	0	0	542	529	
14	0	0	0	0	480	513	
15	0	0	0	0	487	501	
0	0	0	0	0	519	483	
1	0	0	0	0	513	496	
2	0	0	0	0	512	515	
3	0	0	0	0	419	520	
4	0	0	0	0	353	510	
5	0	0	0	0	454	523	
6	0	0	0	0	542	517	
7	0	0	0	0	605	508	
8	0	0	0	0	652	512	
9	0	0	0	0	596	504	
10	0	0	0	0	633	516	
11	0	0	0	0	694	499	
12	0	0	0	0	614	473	
13	0	0	0	0	431	470	
14	0	0	0	0	457	508	
15	0	0	0	0	435	522	
0	0	0	0	0	340	510	
1	0	0	0	0	404	492	
2	0	0	0	0	493	515	
3	0	0	0	0	615	525	
4	0	0	0	0	587	528	
5	0	0	0	0	595	531	
6	0	0	0	0	532	518	
7	0	0	0	0	482	510	
8	0	0	0	0	307	515	
9	0	0	0	0	363	528	
10	0	0	0	0	484	524	
11	0	0	0	0	433	508	
12	0	0	0	0	401	527	
13	0	0	0	0	425	524	
14	0	0	0	0	507	507	
15	0	0	0	0	631	493	
0	0	0	0	0	647	478	
1	0	0	0	0	589	494	
2	0	0	0	0	420	504	
3	0	0	0	0	327	520	
4	0	0	0	0	371	524	
5	0	0	0	0	388	512	
6	0	0	0	0	583	492	
7	0	0	0	0	720	512	
8	0	0	0	0	718	555	
9	0	0	0	0	539	525	
10	0	0	0	0	442	508	
11	0	0	0	0	523	488	
12	0	0	0	0	629	484	
13	0	0	0	0	654	463	
14	0	0	0	0	660	505	
15	0	0	0	0	560	538	
0	0	0	0	0	481	508	
1	0	0	0	0	533	508	
2	0	0	0	0	518	520	
3	0	0	0	0	439	567	
4	0	0	0	0	435	532	
5	0	0	0	0	414	536	
6	0	0	0	0	361	547	
7	0	0	0	0	387	532	
8	0	0	0	0	410	486	
9	0	0	0	0	472	470	
10	0	0	0	0	467	495	
11	0	0	0	0	493	515	
12	0	0	0	0	513	507	
13	0	0	0	0	449	504	
14	0	0	0	0	458	500	
15	0	0	0	0	469	521	
0	0	0	0	0	395	536	
1	0	0	0	0	447	545	
2	0	0	0	0	470	503	
3	0	0	0	0	547	496	
4	0	0	0	0	688	507	
5	0	0	0	0	796	511	
6	0	0	0	0	650	506	
7	0	0	0	0	519	520	
8	0	0	0	0	451	529	
9	0	0	0	0	500	509	
10	0	0	0	0	488	516	
11	0	0	0	0	569	480	
12	0	0	0	0	559	481	
13	0	0	0	0	560	513	
14	0	0	0	0	487	507	
15	0	0	0	0	303	514	
0	0	0	0	0	319	512	
1	0	0	0	0	439	538	
2	0	0	0	0	507	519	
3	0	0	0	0	638	508	
4	0	0	0	0	696	470	
5	0	0	0	0	421	460	
6	0	0	0	0	380	515	
7	0	0	0	0	422	530	
8	0	0	0	0	509	532	
9	0	0	0	0	620	532	
10	0	0	0	0	731	494	
11	0	0	0	0	605	484	
12	0	0	0	0	557	474	
13	0	0	0	0	446	511	
14	0	0	0	0	339	523	
15	0	0	0	0	352	525	
0	0	0	0	0	494	537	
1	0	0	0	0	652	574	
2	0	0	0	0	582	568	
3	0	0	0	0	588	557	
4	0	0	0	0	567	509	
5	0	0	0	0	415	492	
6	0	0	0	0	353	505	
7	0	0	0	0	366	505	
8	0	0	0	0	379	515	
9	0	0	0	0	348	511	
10	0	0	0	0	421	519	
11	0	0	0	0	519	477	
12	0	0	0	0	527	477	
13	0	0	0	0	569	500	
14	0	0	0	0	600	507	
15	0	0	0	0	602	508	
0	0	0	0	0	519	502	
1	0	0	0	0	572	516	
2	0	0	0	0	508	512	
3	0	0	0	0	433	514	
4	0	0	0	0	506	526	
5	0	0	0	0	563	524	
6	0	0	0	0	551	510	
7	0	0	0	0	602	513	
8	0	0	0	0	572	549	
9	0	0	0	0	560	518	
10	0	0	0	0	583	523	
11	0	0	0	0	586	460	
12	0	0	0	0	444	455	
13	0	0	0	0	452	499	
14	0	0	0	0	505	519	
15	0	0	0	0	449	509	
0	0	0	0	0	421	497	
1	0	0	0	0	503	495	
2	0	0	0	0	447	525	
3	0	0	0	0	395	539	
4	0	0	0	0	449	549	
5	0	0	0	0	488	533	
6	0	0	0	0	546	527	
7	0	0	0	0	583	492	
8	0	0	0	0	541	496	
9	0	0	0	0	582	512	
10	0	0	0	0	624	501	
11	0	0	0	0	558	512	
12	0	0	0	0	491	514	
13	0	0	0	0	418	495	
14	0	0	0	0	383	483	
15	0	0	0	0	479	472	
0	0	0	0	0	620	489	
1	0	0	0	0	540	541	
2	0	0	0	0	448	593	
3	0	0	0	0	310	555	
4	0	0	0	0	338	509	
5	0	0	0	0	360	504	
6	0	0	0	0	406	500	
7	0	0	0	0	551	466	
8	0	0	0	0	608	488	
9	0	0	0	0	668	496	
10	0	0	0	0	708	467	
11	0	0	0	0	683	543	
12	0	0	0	0	564	558	
13	0	0	0	0	449	592	
14	0	0	0	0	511	566	
15	0	0	0	0	540	532	
0	0	0	0	0	451	514	
1	0	0	0	0	423	496	
2	0	0	0	0	389	507	
3	0	0	0	0	339	491	
4	0	0	0	0	463	489	
5	0	0	0	0	528	480	
6	0	0	0	0	575	484	
7	0	0	0	0	566	484	
8	0	0	0	0	521	491	
9	0	0	0	0	509	493	
10	0	0	0	0	478	480	
11	0	0	0	0	412	522	
12	0	0	0	0	419	562	
13	0	0	0	0	479	575	
14	0	0	0	0	517	588	
15	0	0	0	0	532	511	
0	0	0	0	0	621	490	
1	0	0	0	0	580	510	
2	0	0	0	0	662	507	
3	0	0	0	0	683	494	
4	0	0	0	0	600	495	
5	0	0	0	0	521	505	
6	0	0	0	0	476	493	
7	0	0	0	0	393	491	
8	0	0	0	0	324	550	
9	0	0	0	0	399	532	
10	0	0	0	0	481	524	
11	0	0	0	0	556	472	
12	0	0	0	0	531	472	
13	0	0	0	0	511	494	
14	0	0	0	0	515	526	
15	0	0	0	0	523	499	
0	0	0	0	0	414	478	
1	0	0	0	0	463	482	
2	0	0	0	0	468	500	
3	0	0	0	0	441	525	
4	0	0	0	0	540	589	
5	0	0	0	0	591	529	
6	0	0	0	0	689	512	
7	0	0	0	0	756	523	
8	0	0	0	0	579	502	
9	0	0	0	0	515	531	
10	0	0	0	0	482	513	
11	0	0	0	0	335	518	
12	0	0	0	0	267	544	
13	0	0	0	0	340	549	
14	0	0	0	0	386	537	
15	0	0	0	0	494	476	
0	0	0	0	0	610	441	
1	0	0	0	0	558	478	
2	0	0	0	0	503	513	
3	0	0	0	0	474	519	
4	0	0	0	0	490	529	
5	0	0	0	0	520	504	
6	0	0	0	0	521	479	
7	0	0	0	0	543	483	
8	0	0	0	0	511	484	
9	0	0	0	0	519	514	
10	0	0	0	0	448	507	
11	0	0	0	0	442	527	
12	0	0	0	0	409	511	
13	0	0	0	0	415	457	
14	0	0	0	0	542	504	
15	0	0	0	0	605	496	
0	0	0	0	0	642	469	
1	0	0	0	0	608	459	
2	0	0	0	0	560	510	
3	0	0	0	0	576	647	
4	0	0	0	0	602	668	
5	0	0	0	0	497	646	
6	0	0	0	0	536	571	
7	0	0	0	0	508	521	
8	0	0	0	0	511	508	
9	0	0	0	0	496	471	
10	0	0	0	0	445	469	
11	0	0	0	0	437	504	
12	0	0	0	0	470	521	
13	0	0	0	0	538	483	
14	0	0	0	0	587	453	
15	0	0	0	0	546	479	
0	0	0	0	0	478	521	
1	0	0	0	0	323	533	
2	0	0	0	0	355	517	
3	0	0	0	0	401	498	
4	0	0	0	0	483	498	
5	0	0	0	0	689	516	
6	0	0	0	0	698	533	
7	0	0	0	0	643	482	
8	0	0	0	0	621	452	
9	0	0	0	0	528	474	
10	0	0	0	0	492	502	
11	0	0	0	0	408	519	
12	0	0	0	0	390	504	
13	0	0	0	0	492	536	
14	0	0	0	0	511	563	
15	0	0	0	0	376	518	
0	0	0	0	0	286	506	
1	0	0	0	0	399	502	
2	0	0	0	0	475	527	
3	0	0	0	0	480	509	
4	0	0	0	0	476	484	
5	0	0	0	0	422	510	
6	0	0	0	0	460	543	
7	0	0	0	0	592	551	
8	0	0	0	0	732	542	
9	0	0	0	0	690	484	
10	0	0	0	0	610	416	
11	0	0	0	0	508	387	
12	0	0	0	0	353	427	
13	0	0	0	0	333	463	
14	0	0	0	0	463	497	
15	0	0	0	0	598	571	
0	0	0	0	0	631	697	
1	0	0	0	0	656	658	
2	0	0	0	0	624	553	
3	0	0	0	0	540	505	
4	0	0	0	0	487	518	
5	0	0	0	0	416	504	
6	0	0	0	0	423	542	
7	0	0	0	0	471	481	
8	0	0	0	0	502	458	
9	0	0	0	0	602	481	
10	0	0	0	0	606	482	
11	0	0	0	0	587	510	
12	0	0	0	0	472	542	
13	0	0	0	0	407	559	
14	0	0	0	0	505	505	
15	0	0	0	0	607	505	
0	0	0	0	0	540	485	
1	0	0	0	0	399	481	
2	0	0	0	0	348	467	
3	0	0	0	0	401	487	
4	0	0	0	0	506	511	
5	0	0	0	0	528	527	
6	0	0	0	0	443	506	
7	0	0	0	0	491	550	
8	0	0	0	0	595	543	
9	0	0	0	0	564	481	
10	0	0	0	0	576	508	
11	0	0	0	0	571	510	
12	0	0	0	0	505	554	
13	0	0	0	0	395	540	
14	0	0	0	0	310	556	
15	0	0	0	0	296	557	
0	0	0	0	0	335	536	
1	0	0	0	0	473	476	
2	0	0	0	0	636	472	
3	0	0	0	0	680	479	
4	0	0	0	0	656	495	
5	0	0	0	0	655	488	
6	0	0	0	0	531	488	
7	0	0	0	0	407	511	
8	0	0	0	0	463	500	
9	0	0	0	0	487	495	
10	0	0	0	0	568	484	
11	0	0	0	0	599	524	
12	0	0	0	0	603	518	
13	0	0	0	0	485	522	
14	0	0	0	0	459	536	
15	0	0	0	0	386	546	
0	0	0	0	0	502	540	
1	0	0	0	0	589	482	
2	0	0	0	0	530	510	
3	0	0	0	0	515	529	
4	0	0	0	0	532	478	
5	0	0	0	0	483	466	
6	0	0	0	0	420	482	
7	0	0	0	0	466	476	
8	0	0	0	0	469	457	
9	0	0	0	0	421	470	
10	0	0	0	0	447	527	
11	0	0	0	0	576	558	
12	0	0	0	0	579	545	
13	0	0	0	0	468	533	
14	0	0	0	0	532	601	
15	0	0	0	0	545	586	
0	0	0	0	0	470	560	
1	0	0	0	0	433	511	
2	0	0	0	0	487	481	
3	0	0	0	0	558	480	
4	0	0	0	0	600	487	
5	0	0	0	0	564	502	
6	0	0	0	0	476	474	
7	0	0	0	0	527	492	
8	0	0	0	0	525	488	
9	0	0	0	0	468	492	
10	0	0	0	0	488	511	
11	0	0	0	0	513	514	
12	0	0	0	0	523	508	
13	0	0	0	0	470	486	
14	0	0	0	0	420	467	
15	0	0	0	0	431	531	
0	0	0	0	0	439	509	
1	0	0	0	0	483	574	
2	0	0	0	0	654	588	
3	0	0	0	0	671	539	
4	0	0	0	0	566	567	
5	0	0	0	0	534	535	
6	0	0	0	0	544	500	
7	0	0	0	0	446	534	
8	0	0	0	0	376	527	
9	0	0	0	0	458	506	
10	0	0	0	0	531	476	
11	0	0	0	0	548	455	
12	0	0	0	0	523	446	
13	0	0	0	0	454	474	
14	0	0	0	0	463	499	
15	0	0	0	0	436	509	
0	0	0	0	0	427	545	
1	0	0	0	0	408	590	
2	0	0	0	0	398	641	
3	0	0	0	0	489	536	
4	0	0	0	0	683	456	
5	0	0	0	0	615	465	
6	0	0	0	0	571	465	
7	0	0	0	0	572	490	
8	0	0	0	0	630	502	
9	0	0	0	0	651	516	
10	0	0	0	0	604	512	
11	0	0	0	0	498	480	
12	0	0	0	0	438	476	
13	0	0	0	0	364	487	
14	0	0	0	0	419	535	
15	0	0	0	0	426	504	
0	0	0	0	0	341	503	
1	0	0	0	0	373	524	
2	0	0	0	0	455	519	
3	0	0	0	0	458	495	
4	0	0	0	0	659	493	
5	0	0	0	0	757	579	
6	0	0	0	0	668	535	
7	0	0	0	0	558	490	
8	0	0	0	0	435	526	
9	0	0	0	0	357	556	
10	0	0	0	0	397	504	
11	0	0	0	0	480	491	
12	0	0	0	0	481	526	
13	0	0	0	0	556	527	
14	0	0	0	0	558	489	
15	0	0	0	0	535	471	
0	0	0	0	0	454	512	
1	0	0	0	0	457	566	
2	0	0	0	0	475	537	
3	0	0	0	0	520	500	
4	0	0	0	0	552	497	
5	0	0	0	0	620	528	
6	0	0	0	0	499	552	
7	0	0	0	0	481	515	
8	0	0	0	0	440	499	
9	0	0	0	0	427	487	
10	0	0	0	0	532	501	
11	0	0	0	0	533	520	
12	0	0	0	0	583	496	
13	0	0	0	0	612	434	
14	0	0	0	0	574	459	
15	0	0	0	0	503	470	
0	0	0	0	0	488	476	
1	0	0	0	0	456	467	
2	0	0	0	0	517	496	
3	0	0	0	0	459	614	
4	0	0	0	0	435	583	
5	0	0	0	0	422	580	
6	0	0	0	0	475	711	
7	0	0	0	0	578	559	
8	0	0	0	0	680	402	
9	0	0	0	0	560	438	
10	0	0	0	0	491	480	
11	0	0	0	0	438	501	
12	0	0	0	0	430	538	
13	0	0	0	0	405	553	
14	0	0	0	0	371	480	
15	0	0	0	0	381	438	
0	0	0	0	0	450	467	
1	0	0	0	0	567	458	
2	0	0	0	0	668	476	
3	0	0	0	0	679	496	
4	0	0	0	0	600	557	
5	0	0	0	0	466	617	
6	0	0	0	0	441	593	
7	0	0	0	0	412	557	
8	0	0	0	0	478	492	
9	0	0	0	0	552	469	
10	0	0	0	0	460	491	
11	0	0	0	0	496	519	
12	0	0	0	0	618	480	
13	0	0	0	0	662	469	
14	0	0	0	0	674	486	
15	0	0	0	0	616	491	
0	0	0	0	0	620	556	
1	0	0	0	0	460	544	
2	0	0	0	0	319	519	
3	0	0	0	0	320	529	
4	0	0	0	0	344	535	
5	0	0	0	0	376	519	
6	0	0	0	0	391	504	
7	0	0	0	0	400	490	
8	0	0	0	0	497	490	
9	0	0	0	0	616	496	
10	0	0	0	0	646	476	
11	0	0	0	0	617	523	
12	0	0	0	0	563	530	
13	0	0	0	0	513	511	
14	0	0	0	0	396	531	
15	0	0	0	0	473	508	
0	0	0	0	0	592	500	
1	0	0	0	0	556	490	
2	0	0	0	0	498	540	
3	0	0	0	0	487	555	
4	0	0	0	0	428	524	
5	0	0	0	0	376	509	
6	0	0	0	0	409	554	
7	0	0	0	0	454	536	
8	0	0	0	0	563	509	
9	0	0	0	0	635	450	
10	0	0	0	0	684	428	
11	0	0	0	0	626	470	
12	0	0	0	0	500	458	
13	0	0	0	0	499	467	
14	0	0	0	0	550	508	
15	0	0	0	0	609	552	
0	0	0	0	0	494	552	
1	0	0	0	0	405	625	
2	0	0	0	0	472	631	
3	0	0	0	0	530	482	
4	0	0	0	0	569	475	
5	0	0	0	0	471	453	
6	0	0	0	0	401	489	
7	0	0	0	0	445	485	
8	0	0	0	0	515	498	
9	0	0	0	0	496	575	
10	0	0	0	0	546	661	
11	0	0	0	0	519	521	
12	0	0	0	0	459	483	
13	0	0	0	0	452	442	
14	0	0	0	0	428	468	
15	0	0	0	0	492	490	
0	0	0	0	0	504	503	
1	0	0	0	0	299	503	
2	0	0	0	0	285	521	
3	0	0	0	0	484	532	
4	0	0	0	0	637	519	
5	0	0	0	0	671	535	
6	0	0	0	0	684	497	
7	0	0	0	0	571	458	
8	0	0	0	0	451	476	
9	0	0	0	0	421	507	
10	0	0	0	0	466	525	
11	0	0	0	0	569	539	
12	0	0	0	0	574	517	
13	0	0	0	0	623	536	
14	0	0	0	0	579	528	
15	0	0	0	0	520	535	
0	0	0	0	0	423	592	
1	0	0	0	0	478	537	
2	0	0	0	0	515	521	
3	0	0	0	0	439	494	
4	0	0	0	0	431	469	
5	0	0	0	0	486	483	
6	0	0	0	0	489	513	
7	0	0	0	0	457	470	
8	0	0	0	0	572	504	
9	0	0	0	0	630	484	
10	0	0	0	0	622	500	
11	0	0	0	0	528	487	
12	0	0	0	0	560	467	
13	0	0	0	0	498	477	
14	0	0	0	0	443	476	
15	0	0	0	0	493	518	
0	0	0	0	0	446	519	
1	0	0	0	0	455	514	
2	0	0	0	0	467	544	
3	0	0	0	0	480	607	
4	0	0	0	0	483	578	
5	0	0	0	0	439	514	
6	0	0	0	0	434	553	
7	0	0	0	0	454	505	
8	0	0	0	0	525	496	
9	0	0	0	0	533	453	
10	0	0	0	0	500	433	
11	0	0	0	0	543	475	
12	0	0	0	0	551	519	
13	0	0	0	0	571	620	
14	0	0	0	0	531	585	
15	0	0	0	0	454	505	
0	0	0	0	0	480	495	
1	0	0	0	0	499	507	
2	0	0	0	0	507	496	
3	0	0	0	0	543	474	
4	0	0	0	0	515	464	
5	0	0	0	0	617	488	
6	0	0	0	0	608	465	
7	0	0	0	0	608	521	
8	0	0	0	0	498	559	
9	0	0	0	0	398	588	
10	0	0	0	0	367	532	
11	0	0	0	0	456	534	
12	0	0	0	0	515	566	
13	0	0	0	0	562	480	
14	0	0	0	0	560	461	
15	0	0	0	0	429	452	
0	0	0	0	0	370	512	
1	0	0	0	0	359	512	
2	0	0	0	0	355	485	
3	0	0	0	0	415	474	
4	0	0	0	0	535	668	
5	0	0	0	0	660	602	
6	0	0	0	0	684	489	
7	0	0	0	0	630	464	
8	0	0	0	0	662	499	
9	0	0	0	0	585	503	
10	0	0	0	0	506	510	
11	0	0	0	0	472	511	
12	0	0	0	0	492	536	
13	0	0	0	0	417	505	
14	0	0	0	0	441	489	
15	0	0	0	0	406	454	
0	0	0	0	0	401	461	
1	0	0	0	0	390	458	
2	0	0	0	0	529	497	
3	0	0	0	0	628	531	
4	0	0	0	0	656	536	
5	0	0	0	0	595	550	
6	0	0	0	0	508	551	
7	0	0	0	0	504	531	
8	0	0	0	0	466	524	
9	0	0	0	0	403	528	
10	0	0	0	0	438	499	
11	0	0	0	0	530	514	
12	0	0	0	0	640	481	
13	0	0	0	0	636	485	
14	0	0	0	0	489	474	
15	0	0	0	0	473	507	
0	0	0	0	0	400	523	
1	0	0	0	0	447	536	
2	0	0	0	0	489	501	
3	0	0	0	0	529	516	
4	0	0	0	0	480	543	
5	0	0	0	0	568	519	
6	0	0	0	0	560	510	
7	0	0	0	0	496	516	
8	0	0	0	0	496	556	
9	0	0	0	0	442	529	
10	0	0	0	0	376	475	
11	0	0	0	0	387	476	
12	0	0	0	0	454	483	
13	0	0	0	0	516	483	
14	0	0	0	0	573	471	
15	0	0	0	0	729	488	
0	0	0	0	0	753	510	
1	0	0	0	0	659	560	
2	0	0	0	0	424	612	
3	0	0	0	0	283	559	
4	0	0	0	0	312	562	
5	0	0	0	0	340	535	
6	0	0	0	0	308	526	
7	0	0	0	0	381	514	
8	0	0	0	0	619	476	
9	0	0	0	0	728	452	
10	0	0	0	0	653	429	
11	0	0	0	0	724	482	
12	0	0	0	0	670	487	
13	0	0	0	0	465	475	
14	0	0	0	0	408	534	
15	0	0	0	0	442	499	
0	0	0	0	0	522	487	
1	0	0	0	0	471	520	
2	0	0	0	0	372	528	
3	0	0	0	0	457	536	
4	0	0	0	0	497	561	
5	0	0	0	0	583	533	
6	0	0	0	0	600	564	
7	0	0	0	0	537	610	
8	0	0	0	0	560	547	
9	0	0	0	0	652	528	
10	0	0	0	0	582	513	
11	0	0	0	0	502	479	
12	0	0	0	0	387	447	
13	0	0	0	0	332	422	
14	0	0	0	0	300	462	
15	0	0	0	0	303	478	
0	0	0	0	0	480	487	
1	0	0	0	0	652	527	
2	0	0	0	0	672	546	
3	0	0	0	0	596	610	
4	0	0	0	0	497	553	
5	0	0	0	0	499	491	
6	0	0	0	0	498	491	
7	0	0	0	0	465	510	
8	0	0	0	0	516	438	
9	0	0	0	0	566	482	
10	0	0	0	0	547	481	
11	0	0	0	0	487	469	
12	0	0	0	0	443	503	
13	0	0	0	0	502	534	
14	0	0	0	0	524	516	
15	0	0	0	0	415	524	
0	0	0	0	0	310	514	
1	0	0	0	0	377	579	
2	0	0	0	0	459	587	
3	0	0	0	0	642	553	
4	0	0	0	0	628	483	
5	0	0	0	0	574	495	
6	0	0	0	0	496	496	
7	0	0	0	0	487	496	
8	0	0	0	0	471	475	
9	0	0	0	0	395	451	
10	0	0	0	0	473	461	
11	0	0	0	0	600	494	
12	0	0	0	0	660	515	
13	0	0	0	0	669	525	
14	0	0	0	0	675	565	
15	0	0	0	0	491	671	
0	0	0	0	0	462	604	
1	0	0	0	0	523	483	
2	0	0	0	0	490	468	
3	0	0	0	0	430	500	
4	0	0	0	0	448	531	
5	0	0	0	0	441	515	
6	0	0	0	0	437	512	
7	0	0	0	0	394	466	
8	0	0	0	0	470	449	
9	0	0	0	0	584	480	
10	0	0	0	0	602	489	
11	0	0	0	0	592	587	
12	0	0	0	0	596	539	
13	0	0	0	0	531	463	
14	0	0	0	0	522	476	
15	0	0	0	0	319	479	
0	0	0	0	0	340	506	
1	0	0	0	0	476	491	
2	0	0	0	0	578	520	
3	0	0	0	0	634	528	
4	0	0	0	0	582	536	
5	0	0	0	0	435	551	
6	0	0	0	0	415	524	
7	0	0	0	0	455	513	
8	0	0	0	0	459	515	
9	0	0	0	0	521	524	
10	0	0	0	0	640	553	
11	0	0	0	0	613	455	
12	0	0	0	0	529	438	
13	0	0	0	0	480	476	
14	0	0	0	0	416	500	
15	0	0	0	0	369	538	
0	0	0	0	0	372	570	
1	0	0	0	0	431	602	
2	0	0	0	0	518	557	
3	0	0	0	0	659	495	
4	0	0	0	0	635	497	
5	0	0	0	0	589	480	
6	0	0	0	0	575	492	
7	0	0	0	0	462	505	
8	0	0	0	0	355	523	
9	0	0	0	0	416	518	
10	0	0	0	0	591	502	
11	0	0	0	0	655	445	
12	0	0	0	0	608	432	
13	0	0	0	0	541	450	
14	0	0	0	0	433	500	
15	0	0	0	0	396	552	
0	0	0	0	0	423	624	
1	0	0	0	0	353	586	
2	0	0	0	0	340	601	
3	0	0	0	0	465	558	
4	0	0	0	0	607	506	
5	0	0	0	0	694	488	
6	0	0	0	0	615	467	
7	0	0	0	0	561	482	
8	0	0	0	0	500	473	
9	0	0	0	0	493	470	
10	0	0	0	0	427	499	
11	0	0	0	0	540	487	
12	0	0	0	0	592	502	
13	0	0	0	0	440	511	
14	0	0	0	0	482	496	
15	0	0	0	0	548	465	
0	0	0	0	0	513	438	
1	0	0	0	0	468	482	
2	0	0	0	0	406	551	
3	0	0	0	0	345	616	
4	0	0	0	0	463	608	
5	0	0	0	0	526	627	
6	0	0	0	0	582	621	
7	0	0	0	0	646	545	
8	0	0	0	0	636	443	
9	0	0	0	0	579	428	
10	0	0	0	0	495	456	
11	0	0	0	0	458	490	
12	0	0	0	0	504	483	
13	0	0	0	0	526	485	
14	0	0	0	0	551	465	
15	0	0	0	0	567	460	
0	0	0	0	0	484	484	
1	0	0	0	0	432	544	
2	0	0	0	0	474	524	
3	0	0	0	0	531	528	
4	0	0	0	0	448	518	
5	0	0	0	0	393	536	
6	0	0	0	0	434	559	
7	0	0	0	0	485	542	
8	0	0	0	0	506	527	
9	0	0	0	0	622	508	
10	0	0	0	0	632	499	
11	0	0	0	0	551	509	
12	0	0	0	0	524	502	
13	0	0	0	0	555	493	
14	0	0	0	0	476	498	
15	0	0	0	0	376	510	
0	0	0	0	0	341	513	
1	0	0	0	0	377	503	
2	0	0	0	0	451	501	
3	0	0	0	0	472	573	
4	0	0	0	0	483	555	
5	0	0	0	0	636	492	
6	0	0	0	0	600	475	
7	0	0	0	0	584	502	
8	0	0	0	0	548	544	
9	0	0	0	0	541	562	
10	0	0	0	0	480	519	
11	0	0	0	0	423	534	
12	0	0	0	0	454	469	
13	0	0	0	0	515	441	
14	0	0	0	0	475	455	
15	0	0	0	0	448	489	
0	0	0	0	0	466	532	
1	0	0	0	0	510	517	
2	0	0	0	0	539	569	
3	0	0	0	0	530	528	
4	0	0	0	0	682	494	
5	0	0	0	0	599	472	
6	0	0	0	0	512	460	
7	0	0	0	0	547	471	
8	0	0	0	0	513	493	
9	0	0	0	0	369	549	
10	0	0	0	0	328	689	
11	0	0	0	0	411	600	
12	0	0	0	0	590	496	
13	0	0	0	0	664	460	
14	0	0	0	0	652	483	
15	0	0	0	0	581	480	
0	0	0	0	0	519	443	
1	0	0	0	0	503	455	
2	0	0	0	0	484	454	
3	0	0	0	0	456	475	
4	0	0	0	0	436	539	
5	0	0	0	0	408	575	
6	0	0	0	0	431	512	
7	0	0	0	0	458	543	
8	0	0	0	0	455	618	
9	0	0	0	0	444	647	
10	0	0	0	0	549	563	
11	0	0	0	0	552	526	
12	0	0	0	0	582	515	
13	0	0	0	0	572	497	
14	0	0	0	0	426	465	
15	0	0	0	0	425	449	
0	0	0	0	0	560	443	
1	0	0	0	0	564	482	
2	0	0	0	0	618	479	
3	0	0	0	0	556	477	
4	0	0	0	0	492	510	
5	0	0	0	0	556	534	
6	0	0	0	0	504	530	
7	0	0	0	0	395	507	
8	0	0	0	0	379	502	
9	0	0	0	0	436	514	
10	0	0	0	0	497	512	
11	0	0	0	0	552	515	
12	0	0	0	0	616	513	
13	0	0	0	0	494	507	
14	0	0	0	0	446	510	
15	0	0	0	0	384	511	
0	0	0	0	0	406	524	
1	0	0	0	0	500	519	
2	0	0	0	0	539	512	
3	0	0	0	0	547	514	
4	0	0	0	0	622	527	
5	0	0	0	0	617	542	
6	0	0	0	0	463	542	
7	0	0	0	0	343	555	
8	0	0	0	0	408	540	
9	0	0	0	0	583	499	
10	0	0	0	0	615	468	
11	0	0	0	0	564	443	
12	0	0	0	0	655	416	
13	0	0	0	0	688	515	
14	0	0	0	0	598	509	
15	0	0	0	0	524	513	
0	0	0	0	0	463	504	
1	0	0	0	0	465	531	
2	0	0	0	0	468	535	
3	0	0	0	0	379	440	
4	0	0	0	0	376	412	
5	0	0	0	0	396	446	
6	0	0	0	0	390	520	
7	0	0	0	0	518	563	
8	0	0	0	0	536	594	
9	0	0	0	0	462	738	
10	0	0	0	0	440	704	
11	0	0	0	0	547	536	
12	0	0	0	0	628	484	
13	0	0	0	0	616	451	
14	0	0	0	0	591	460	
15	0	0	0	0	525	462	
0	0	0	0	0	511	492	
1	0	0	0	0	456	508	
2	0	0	0	0	462	502	
3	0	0	0	0	464	497	
4	0	0	0	0	449	501	
5	0	0	0	0	448	487	
6	0	0	0	0	499	475	
7	0	0	0	0	551	494	
8	0	0	0	0	598	497	
9	0	0	0	0	554	504	
10	0	0	0	0	441	504	
11	0	0	0	0	419	536	
12	0	0	0	0	426	502	
13	0	0	0	0	463	501	
14	0	0	0	0	571	512	
15	0	0	0	0	527	555	
0	0	0	0	0	483	565	
1	0	0	0	0	517	513	
2	0	0	0	0	514	496	
3	0	0	0	0	526	476	
4	0	0	0	0	487	482	
5	0	0	0	0	455	513	
6	0	0	0	0	519	529	
7	0	0	0	0	583	523	
8	0	0	0	0	596	500	
9	0	0	0	0	604	497	
10	0	0	0	0	529	497	
11	0	0	0	0	470	551	
12	0	0	0	0	426	527	
13	0	0	0	0	441	526	
14	0	0	0	0	515	527	
15	0	0	0	0	511	499	
0	0	0	0	0	462	496	
1	0	0	0	0	499	493	
2	0	0	0	0	553	551	
3	0	0	0	0	519	572	
4	0	0	0	0	521	571	
5	0	0	0	0	590	556	
6	0	0	0	0	532	470	
7	0	0	0	0	500	498	
8	0	0	0	0	550	498	
9	0	0	0	0	540	435	
10	0	0	0	0	424	425	
11	0	0	0	0	365	480	
12	0	0	0	0	423	508	
13	0	0	0	0	467	500	
14	0	0	0	0	530	488	
15	0	0	0	0	584	487	
0	0	0	0	0	551	515	
1	0	0	0	0	553	523	
2	0	0	0	0	523	537	
3	0	0	0	0	469	527	
4	0	0	0	0	463	531	
5	0	0	0	0	385	510	
6	0	0	0	0	348	508	
7	0	0	0	0	504	496	
8	0	0	0	0	614	505	
9	0	0	0	0	575	519	
10	0	0	0	0	568	532	
11	0	0	0	0	527	481	
12	0	0	0	0	418	481	
13	0	0	0	0	385	593	
14	0	0	0	0	492	617	
15	0	0	0	0	577	594	
0	0	0	0	0	725	502	
1	0	0	0	0	596	455	
2	0	0	0	0	445	457	
3	0	0	0	0	414	489	
4	0	0	0	0	371	493	
5	0	0	0	0	410	493	
6	0	0	0	0	570	510	
7	0	0	0	0	664	494	
8	0	0	0	0	665	553	
9	0	0	0	0	591	605	
10	0	0	0	0	507	568	
11	0	0	0	0	502	480	
12	0	0	0	0	448	460	
13	0	0	0	0	428	475	
14	0	0	0	0	402	467	
15	0	0	0	0	387	484	
0	0	0	0	0	492	523	
1	0	0	0	0	580	583	
2	0	0	0	0	507	570	
3	0	0	0	0	517	498	
4	0	0	0	0	532	492	
5	0	0	0	0	520	476	
6	0	0	0	0	500	440	
7	0	0	0	0	484	460	
8	0	0	0	0	475	483	
9	0	0	0	0	471	580	
10	0	0	0	0	433	632	
11	0	0	0	0	449	574	
12	0	0	0	0	521	491	
13	0	0	0	0	588	496	
14	0	0	0	0	662	486	
15	0	0	0	0	646	475	
0	0	0	0	0	600	481	
1	0	0	0	0	487	491	
2	0	0	0	0	420	503	
3	0	0	0	0	430	524	
4	0	0	0	0	438	512	
5	0	0	0	0	404	542	
6	0	0	0	0	421	540	
7	0	0	0	0	458	518	
8	0	0	0	0	508	551	
9	0	0	0	0	574	497	
10	0	0	0	0	559	491	
11	0	0	0	0	481	529	
12	0	0	0	0	484	540	
13	0	0	0	0	532	544	
14	0	0	0	0	519	502	
15	0	0	0	0	485	480	
0	0	0	0	0	459	474	
1	0	0	0	0	445	463	
2	0	0	0	0	436	491	
3	0	0	0	0	505	527	
4	0	0	0	0	530	498	
5	0	0	0	0	556	488	
6	0	0	0	0	708	477	
7	0	0	0	0	707	453	
8	0	0	0	0	619	441	
9	0	0	0	0	510	484	
10	0	0	0	0	529	648	
11	0	0	0	0	441	656	
12	0	0	0	0	371	608	
13	0	0	0	0	363	527	
14	0	0	0	0	451	537	
15	0	0	0	0	496	496	
0	0	0	0	0	520	484	
1	0	0	0	0	532	500	
2	0	0	0	0	538	515	
3	0	0	0	0	482	514	
4	0	0	0	0	477	487	
5	0	0	0	0	442	470	
6	0	0	0	0	423	489	
7	0	0	0	0	543	502	
8	0	0	0	0	584	473	
9	0	0	0	0	588	482	
10	0	0	0	0	535	512	
11	0	0	0	0	423	519	
12	0	0	0	0	369	476	
13	0	0	0	0	397	496	
14	0	0	0	0	533	509	
15	0	0	0	0	626	472	
0	0	0	0	0	679	492	
1	0	0	0	0	703	562	
2	0	0	0	0	493	641	
3	0	0	0	0	344	522	
4	0	0	0	0	406	521	
5	0	0	0	0	478	522	
6	0	0	0	0	462	515	
7	0	0	0	0	404	534	
8	0	0	0	0	409	556	
9	0	0	0	0	502	547	
10	0	0	0	0	653	533	
11	0	0	0	0	629	508	
12	0	0	0	0	600	455	
13	0	0	0	0	517	443	
14	0	0	0	0	480	468	
15	0	0	0	0	462	502	
0	0	0	0	0	513	522	
1	0	0	0	0	535	507	
2	0	0	0	0	512	482	
3	0	0	0	0	405	469	
4	0	0	0	0	457	499	
5	0	0	0	0	498	529	
6	0	0	0	0	577	529	
7	0	0	0	0	622	518	
8	0	0	0	0	545	527	
9	0	0	0	0	502	563	
10	0	0	0	0	468	550	
11	0	0	0	0	480	541	
12	0	0	0	0	394	507	
13	0	0	0	0	281	446	
14	0	0	0	0	326	457	
15	0	0	0	0	475	488	
0	0	0	0	0	763	551	
1	0	0	0	0	900	542	
2	0	0	0	0	605	522	
3	0	0	0	0	446	526	
4	0	0	0	0	452	536	
5	0	0	0	0	502	551	
6	0	0	0	0	500	473	
7	0	0	0	0	516	466	
8	0	0	0	0	496	484	
9	0	0	0	0	347	463	
10	0	0	0	0	321	495	
11	0	0	0	0	414	539	
12	0	0	0	0	583	561	
13	0	0	0	0	618	536	
14	0	0	0	0	576	466	
15	0	0	0	0	563	526	
0	0	0	0	0	510	564	
1	0	0	0	0	444	540	
2	0	0	0	0	492	516	
3	0	0	0	0	482	503	
4	0	0	0	0	499	507	
5	0	0	0	0	458	503	
6	0	0	0	0	493	504	
7	0	0	0	0	535	489	
8	0	0	0	0	534	507	
9	0	0	0	0	485	507	
10	0	0	0	0	546	532	
11	0	0	0	0	532	548	
12	0	0	0	0	468	527	
13	0	0	0	0	417	519	
14	0	0	0	0	407	527	
15	0	0	0	0	409	518	
0	0	0	0	0	502	462	
1	0	0	0	0	632	484	
2	0	0	0	0	590	456	
3	0	0	0	0	591	481	
4	0	0	0	0	543	508	
5	0	0	0	0	505	519	
6	0	0	0	0	504	479	
7	0	0	0	0	455	472	
8	0	0	0	0	452	471	
9	0	0	0	0	544	518	
10	0	0	0	0	606	516	
11	0	0	0	0	618	542	
12	0	0	0	0	572	637	
13	0	0	0	0	561	598	
14	0	0	0	0	512	531	
15	0	0	0	0	459	503	
0	0	0	0	0	448	499	
1	0	0	0	0	492	573	
2	0	0	0	0	468	517	
3	0	0	0	0	405	487	
4	0	0	0	0	298	473	
5	0	0	0	0	295	500	
6	0	0	0	0	391	514	
7	0	0	0	0	614	510	
8	0	0	0	0	777	486	
9	0	0	0	0	788	480	
10	0	0	0	0	638	504	
11	0	0	0	0	483	496	
12	0	0	0	0	411	491	
13	0	0	0	0	437	521	
14	0	0	0	0	556	518	
15	0	0	0	0	505	491	
0	0	0	0	0	447	501	
1	0	0	0	0	438	505	
2	0	0	0	0	450	509	
3	0	0	0	0	446	508	
4	0	0	0	0	427	541	
5	0	0	0	0	438	534	
6	0	0	0	0	567	496	
7	0	0	0	0	581	512	
8	0	0	0	0	509	472	
9	0	0	0	0	432	472	
10	0	0	0	0	394	492	
11	0	0	0	0	427	553	
12	0	0	0	0	591	581	
13	0	0	0	0	679	504	
14	0	0	0	0	577	479	
15	0	0	0	0	579	520	
0	0	0	0	0	544	548	
1	0	0	0	0	494	564	
2	0	0	0	0	481	582	
3	0	0	0	0	458	552	
4	0	0	0	0	476	548	
5	0	0	0	0	500	554	
6	0	0	0	0	499	527	
7	0	0	0	0	474	517	
8	0	0	0	0	579	467	
9	0	0	0	0	549	432	
10	0	0	0	0	553	431	
11	0	0	0	0	505	454	
12	0	0	0	0	464	451	
13	0	0	0	0	401	480	
14	0	0	0	0	345	498	
15	0	0	0	0	328	508	
0	0	0	0	0	482	543	
1	0	0	0	0	611	503	
2	0	0	0	0	707	483	
3	0	0	0	0	656	500	
4	0	0	0	0	584	545	
5	0	0	0	0	560	508	
6	0	0	0	0	528	501	
7	0	0	0	0	462	564	
8	0	0	0	0	468	581	
9	0	0	0	0	468	577	
10	0	0	0	0	343	556	
11	0	0	0	0	408	537	
12	0	0	0	0	525	518	
13	0	0	0	0	624	436	
14	0	0	0	0	628	444	
15	0	0	0	0	635	480	
0	0	0	0	0	502	485	
1	0	0	0	0	430	484	
2	0	0	0	0	386	502	
3	0	0	0	0	427	520	
4	0	0	0	0	493	532	
5	0	0	0	0	475	551	
6	0	0	0	0	465	577	
7	0	0	0	0	523	532	
8	0	0	0	0	640	465	
9	0	0	0	0	601	447	
10	0	0	0	0	392	468	
11	0	0	0	0	342	488	
12	0	0	0	0	445	511	
13	0	0	0	0	524	547	
14	0	0	0	0	568	606	
15	0	0	0	0	682	558	
0	0	0	0	0	636	520	
1	0	0	0	0	440	530	
2	0	0	0	0	462	516	
3	0	0	0	0	486	470	
4	0	0	0	0	537	443	
5	0	0	0	0	496	448	
6	0	0	0	0	492	514	
7	0	0	0	0	490	535	
8	0	0	0	0	509	572	
9	0	0	0	0	579	568	
10	0	0	0	0	515	503	
11	0	0	0	0	425	465	
12	0	0	0	0	403	424	
13	0	0	0	0	434	489	
14	0	0	0	0	412	526	
15	0	0	0	0	438	566	
0	0	0	0	0	447	575	
1	0	0	0	0	360	584	
2	0	0	0	0	463	525	
3	0	0	0	0	658	504	
4	0	0	0	0	809	473	
5	0	0	0	0	779	446	
6	0	0	0	0	611	473	
7	0	0	0	0	543	519	
8	0	0	0	0	524	517	
9	0	0	0	0	443	504	
10	0	0	0	0	441	532	
11	0	0	0	0	446	566	
12	0	0	0	0	425	561	
13	0	0	0	0	410	566	
14	0	0	0	0	463	530	
15	0	0	0	0	506	517	
0	0	0	0	0	523	486	
1	0	0	0	0	508	446	
2	0	0	0	0	477	405	
3	0	0	0	0	502	458	
4	0	0	0	0	526	468	
5	0	0	0	0	500	484	
6	0	0	0	0	513	564	
7	0	0	0	0	537	640	
8	0	0	0	0	536	649	
9	0	0	0	0	482	528	
10	0	0	0	0	487	467	
11	0	0	0	0	563	486	
12	0	0	0	0	540	483	
13	0	0	0	0	503	456	
14	0	0	0	0	476	429	
15	0	0	0	0	543	452	
0	0	0	0	0	534	452	
1	0	0	0	0	523	496	
2	0	0	0	0	480	535	
3	0	0	0	0	339	580	
4	0	0	0	0	377	594	
5	0	0	0	0	459	607	
6	0	0	0	0	482	563	
7	0	0	0	0	540	489	
8	0	0	0	0	627	471	
9	0	0	0	0	564	476	
10	0	0	0	0	524	460	
11	0	0	0	0	563	484	
12	0	0	0	0	513	496	
13	0	0	0	0	499	502	
14	0	0	0	0	510	478	
15	0	0	0	0	506	506	
0	0	0	0	0	486	547	
1	0	0	0	0	475	521	
2	0	0	0	0	506	508	
3	0	0	0	0	540	491	
4	0	0	0	0	566	558	
5	0	0	0	0	547	513	
6	0	0	0	0	411	496	
7	0	0	0	0	314	492	
8	0	0	0	0	358	515	
9	0	0	0	0	513	564	
10	0	0	0	0	621	576	
11	0	0	0	0	653	589	
12	0	0	0	0	561	455	
13	0	0	0	0	483	387	
14	0	0	0	0	447	401	
15	0	0	0	0	471	435	
0	0	0	0	0	492	515	
1	0	0	0	0	414	646	
2	0	0	0	0	412	686	
3	0	0	0	0	492	705	
4	0	0	0	0	595	602	
5	0	0	0	0	731	620	
6	0	0	0	0	662	550	
7	0	0	0	0	473	483	
8	0	0	0	0	371	403	
9	0	0	0	0	406	346	
10	0	0	0	0	489	356	
11	0	0	0	0	674	416	
12	0	0	0	0	656	444	
13	0	0	0	0	512	472	
14	0	0	0	0	482	498	
15	0	0	0	0	521	482	
0	0	0	0	0	420	504	
1	0	0	0	0	424	513	
2	0	0	0	0	498	539	
3	0	0	0	0	512	536	
4	0	0	0	0	515	528	
5	0	0	0	0	503	526	
6	0	0	0	0	459	527	
7	0	0	0	0	427	529	
8	0	0	0	0	489	516	
9	0	0	0	0	518	547	
10	0	0	0	0	494	564	
11	0	0	0	0	493	569	
12	0	0	0	0	518	560	
13	0	0	0	0	499	502	
14	0	0	0	0	528	518	
15	0	0	0	0	509	551	
0	0	0	0	0	569	551	
1	0	0	0	0	665	499	
2	0	0	0	0	515	393	
3	0	0	0	0	450	390	
4	0	0	0	0	460	458	
5	0	0	0	0	344	527	
6	0	0	0	0	370	534	
7	0	0	0	0	479	540	
8	0	0	0	0	564	540	
9	0	0	0	0	547	463	
10	0	0	0	0	531	486	
11	0	0	0	0	545	531	
12	0	0	0	0	507	552	
13	0	0	0	0	545	550	
14	0	0	0	0	552	514	
15	0	0	0	0	443	451	
0	0	0	0	0	374	476	
1	0	0	0	0	470	548	
2	0	0	0	0	498	595	
3	0	0	0	0	518	543	
4	0	0	0	0	559	528	
5	0	0	0	0	608	535	
6	0	0	0	0	535	508	
7	0	0	0	0	493	525	
8	0	0	0	0	409	536	
9	0	0	0	0	477	516	
10	0	0	0	0	516	528	
11	0	0	0	0	563	535	
12	0	0	0	0	568	405	
13	0	0	0	0	636	448	
14	0	0	0	0	585	486	
15	0	0	0	0	497	483	
0	0	0	0	0	487	528	
1	0	0	0	0	461	630	
2	0	0	0	0	452	625	
3	0	0	0	0	504	557	
4	0	0	0	0	569	497	
5	0	0	0	0	554	435	
6	0	0	0	0	503	432	
7	0	0	0	0	505	399	
8	0	0	0	0	497	430	
9	0	0	0	0	512	451	
10	0	0	0	0	527	471	
11	0	0	0	0	512	492	
12	0	0	0	0	332	524	
13	0	0	0	0	242	593	
14	0	0	0	0	280	556	
15	0	0	0	0	427	527	
0	0	0	0	0	551	499	
1	0	0	0	0	651	489	
2	0	0	0	0	740	491	
3	0	0	0	0	695	526	
4	0	0	0	0	591	593	
5	0	0	0	0	487	644	
6	0	0	0	0	499	553	
7	0	0	0	0	481	487	
8	0	0	0	0	481	461	
9	0	0	0	0	497	459	
10	0	0	0	0	425	470	
11	0	0	0	0	459	492	
12	0	0	0	0	539	503	
13	0	0	0	0	544	518	
14	0	0	0	0	543	553	
15	0	0	0	0	519	592	
0	0	0	0	0	425	531	
1	0	0	0	0	470	505	
2	0	0	0	0	471	510	
3	0	0	0	0	477	540	
4	0	0	0	0	512	498	
5	0	0	0	0	505	505	
6	0	0	0	0	488	514	
7	0	0	0	0	486	508	
8	0	0	0	0	510	504	
9	0	0	0	0	517	478	
10	0	0	0	0	522	425	
11	0	0	0	0	516	468	
12	0	0	0	0	511	506	
13	0	0	0	0	514	509	
14	0	0	0	0	462	568	
15	0	0	0	0	526	598	
0	0	0	0	0	506	578	
1	0	0	0	0	511	536	
2	0	0	0	0	508	511	
3	0	0	0	0	467	479	
4	0	0	0	0	474	478	
5	0	0	0	0	479	463	
6	0	0	0	0	478	444	
7	0	0	0	0	497	470	
8	0	0	0	0	537	524	
9	0	0	0	0	615	536	
10	0	0	0	0	604	534	
11	0	0	0	0	582	554	
12	0	0	0	0	572	515	
13	0	0	0	0	521	509	
14	0	0	0	0	419	480	
15	0	0	0	0	441	486	
0	0	0	0	0	507	510	
1	0	0	0	0	539	455	
2	0	0	0	0	587	566	
3	0	0	0	0	548	636	
4	0	0	0	0	454	498	
5	0	0	0	0	474	475	
6	0	0	0	0	470	526	
7	0	0	0	0	479	528	
8	0	0	0	0	507	540	
9	0	0	0	0	521	564	
10	0	0	0	0	450	572	
11	0	0	0	0	434	531	
12	0	0	0	0	450	448	
13	0	0	0	0	448	404	
14	0	0	0	0	470	438	
15	0	0	0	0	523	478	
0	0	0	0	0	545	496	
1	0	0	0	0	531	507	
2	0	0	0	0	540	560	
3	0	0	0	0	528	522	
4	0	0	0	0	551	509	
5	0	0	0	0	454	522	
6	0	0	0	0	404	527	
7	0	0	0	0	422	531	
8	0	0	0	0	541	524	
9	0	0	0	0	640	473	
10	0	0	0	0	621	432	
11	0	0	0	0	602	518	
12	0	0	0	0	489	550	
13	0	0	0	0	446	508	
14	0	0	0	0	467	480	
15	0	0	0	0	500	485	
0	0	0	0	0	511	483	
1	0	0	0	0	516	517	
2	0	0	0	0	503	538	
3	0	0	0	0	520	494	
4	0	0	0	0	524	544	
5	0	0	0	0	472	588	
6	0	0	0	0	428	618	
7	0	0	0	0	492	575	
8	0	0	0	0	551	695	
9	0	0	0	0	550	661	
10	0	0	0	0	545	480	
11	0	0	0	0	550	413	
12	0	0	0	0	441	347	
13	0	0	0	0	353	363	
14	0	0	0	0	403	413	
15	0	0	0	0	457	457	
0	0	0	0	0	468	492	
1	0	0	0	0	559	498	
2	0	0	0	0	646	501	
3	0	0	0	0	609	515	
4	0	0	0	0	556	563	
5	0	0	0	0	537	581	
6	0	0	0	0	518	554	
7	0	0	0	0	507	527	
8	0	0	0	0	548	503	
9	0	0	0	0	519	462	
10	0	0	0	0	454	507	
11	0	0	0	0	406	505	
12	0	0	0	0	473	515	
13	0	0	0	0	446	505	
14	0	0	0	0	456	511	
15	0	0	0	0	498	527	
0	0	0	0	0	558	526	
1	0	0	0	0	511	524	
2	0	0	0	0	470	521	
3	0	0	0	0	438	529	
4	0	0	0	0	454	532	
5	0	0	0	0	443	513	
6	0	0	0	0	508	508	
7	0	0	0	0	572	520	
8	0	0	0	0	607	575	
9	0	0	0	0	677	551	
10	0	0	0	0	617	494	
11	0	0	0	0	553	497	
12	0	0	0	0	528	463	
13	0	0	0	0	493	430	
14	0	0	0	0	390	473	
15	0	0	0	0	415	504	
0	0	0	0	0	417	471	
1	0	0	0	0	404	557	
2	0	0	0	0	419	505	
3	0	0	0	0	540	483	
4	0	0	0	0	677	497	
5	0	0	0	0	673	509	
6	0	0	0	0	494	545	
7	0	0	0	0	425	507	
8	0	0	0	0	479	526	
9	0	0	0	0	495	485	
10	0	0	0	0	499	594	
11	0	0	0	0	472	553	
12	0	0	0	0	491	626	
13	0	0	0	0	511	556	
14	0	0	0	0	543	548	
15	0	0	0	0	535	473	
0	0	0	0	0	546	423	
1	0	0	0	0	513	457	
2	0	0	0	0	516	466	
3	0	0	0	0	535	466	
4	0	0	0	0	435	472	
5	0	0	0	0	327	499	
6	0	0	0	0	453	564	
7	0	0	0	0	593	572	
8	0	0	0	0	624	518	
9	0	0	0	0	592	483	
10	0	0	0	0	478	451	
11	0	0	0	0	414	496	
12	0	0	0	0	447	543	
13	0	0	0	0	484	556	
14	0	0	0	0	502	676	
15	0	0	0	0	520	635	
0	0	0	0	0	503	507	
1	0	0	0	0	501	465	
2	0	0	0	0	512	443	
3	0	0	0	0	529	431	
4	0	0	0	0	559	450	
5	0	0	0	0	525	469	
6	0	0	0	0	500	497	
7	0	0	0	0	484	516	
8	0	0	0	0	480	528	
9	0	0	0	0	485	528	
10	0	0	0	0	471	532	
11	0	0	0	0	469	543	
12	0	0	0	0	497	526	
13	0	0	0	0	497	514	
14	0	0	0	0	522	492	
15	0	0	0	0	534	461	
0	0	0	0	0	519	470	
1	0	0	0	0	565	500	
2	0	0	0	0	545	527	
3	0	0	0	0	478	526	
4	0	0	0	0	481	537	
5	0	0	0	0	557	555	
6	0	0	0	0	551	533	
7	0	0	0	0	565	520	
8	0	0	0	0	508	455	
9	0	0	0	0	424	433	
10	0	0	0	0	396	453	
11	0	0	0	0	440	492	
12	0	0	0	0	481	484	
13	0	0	0	0	527	569	
14	0	0	0	0	560	657	
15	0	0	0	0	567	586	
0	0	0	0	0	531	585	
1	0	0	0	0	539	601	
2	0	0	0	0	524	520	
3	0	0	0	0	492	469	
4	0	0	0	0	473	478	
5	0	0	0	0	459	492	
6	0	0	0	0	457	456	
7	0	0	0	0	542	462	
8	0	0	0	0	546	475	
9	0	0	0	0	526	485	
10	0	0	0	0	484	461	
11	0	0	0	0	512	479	
12	0	0	0	0	515	496	
13	0	0	0	0	542	543	
14	0	0	0	0	570	511	
15	0	0	0	0	519	492	
0	0	0	0	0	435	504	
1	0	0	0	0	450	525	
2	0	0	0	0	489	535	
3	0	0	0	0	497	523	
4	0	0	0	0	485	509	
5	0	0	0	0	486	518	
6	0	0	0	0	467	547	
7	0	0	0	0	471	545	
8	0	0	0	0	490	529	
9	0	0	0	0	487	512	
10	0	0	0	0	497	504	
11	0	0	0	0	536	516	
12	0	0	0	0	536	484	
13	0	0	0	0	529	473	
14	0	0	0	0	508	482	
15	0	0	0	0	513	497	
0	0	0	0	0	483	521	
1	0	0	0	0	506	548	
2	0	0	0	0	473	543	
3	0	0	0	0	492	574	
4	0	0	0	0	459	536	
5	0	0	0	0	507	483	
6	0	0	0	0	639	408	
7	0	0	0	0	687	409	
8	0	0	0	0	556	407	
9	0	0	0	0	462	494	
10	0	0	0	0	412	577	
11	0	0	0	0	478	715	
12	0	0	0	0	511	620	
13	0	0	0	0	502	570	
14	0	0	0	0	528	540	
15	0	0	0	0	540	497	
0	0	0	0	0	542	475	
1	0	0	0	0	551	455	
2	0	0	0	0	480	486	
3	0	0	0	0	375	593	
4	0	0	0	0	441	650	
5	0	0	0	0	467	515	
6	0	0	0	0	462	426	
7	0	0	0	0	523	424	
8	0	0	0	0	571	447	
9	0	0	0	0	531	472	
10	0	0	0	0	476	491	
11	0	0	0	0	502	520	
12	0	0	0	0	519	521	
13	0	0	0	0	485	505	
14	0	0	0	0	446	511	
15	0	0	0	0	420	543	
0	0	0	0	0	357	489	
1	0	0	0	0	462	525	
2	0	0	0	0	612	488	
3	0	0	0	0	591	468	
4	0	0	0	0	648	481	
5	0	0	0	0	642	496	
6	0	0	0	0	615	506	
7	0	0	0	0	527	503	
8	0	0	0	0	483	521	
9	0	0	0	0	491	543	
10	0	0	0	0	481	568	
11	0	0	0	0	471	532	
12	0	0	0	0	481	512	
13	0	0	0	0	471	504	
14	0	0	0	0	489	512	
15	0	0	0	0	496	536	
0	0	0	0	0	452	546	
1	0	0	0	0	476	531	
2	0	0	0	0	495	476	
3	0	0	0	0	463	385	
4	0	0	0	0	433	464	
5	0	0	0	0	444	531	
6	0	0	0	0	530	555	
7	0	0	0	0	598	665	
8	0	0	0	0	547	686	
9	0	0	0	0	463	480	
10	0	0	0	0	490	422	
11	0	0	0	0	606	455	
12	0	0	0	0	617	472	
13	0	0	0	0	515	476	
14	0	0	0	0	478	478	
15	0	0	0	0	563	493	
0	0	0	0	0	604	518	
1	0	0	0	0	532	499	
2	0	0	0	0	497	454	
3	0	0	0	0	433	491	
4	0	0	0	0	431	599	
5	0	0	0	0	461	554	
6	0	0	0	0	467	497	
7	0	0	0	0	516	467	
8	0	0	0	0	536	461	
9	0	0	0	0	446	575	
10	0	0	0	0	378	664	
11	0	0	0	0	444	583	
12	0	0	0	0	543	615	
13	0	0	0	0	616	511	
14	0	0	0	0	609	461	
15	0	0	0	0	515	420	
0	0	0	0	0	409	441	
1	0	0	0	0	422	473	
2	0	0	0	0	463	489	
3	0	0	0	0	512	493	
4	0	0	0	0	503	481	
5	0	0	0	0	512	464	
6	0	0	0	0	518	483	
7	0	0	0	0	494	552	
8	0	0	0	0	499	582	
9	0	0	0	0	535	555	
10	0	0	0	0	638	588	
11	0	0	0	0	595	628	
12	0	0	0	0	520	526	
13	0	0	0	0	480	441	
14	0	0	0	0	562	446	
15	0	0	0	0	564	428	
0	0	0	0	0	450	455	
1	0	0	0	0	435	494	
2	0	0	0	0	483	549	
3	0	0	0	0	487	546	
4	0	0	0	0	494	518	
5	0	0	0	0	468	502	
6	0	0	0	0	472	492	
7	0	0	0	0	415	483	
8	0	0	0	0	475	527	
9	0	0	0	0	500	566	
10	0	0	0	0	511	587	
11	0	0	0	0	510	543	
12	0	0	0	0	443	499	
13	0	0	0	0	467	520	
14	0	0	0	0	463	457	
15	0	0	0	0	532	468	
0	0	0	0	0	605	469	
1	0	0	0	0	574	475	
2	0	0	0	0	517	476	
3	0	0	0	0	593	489	
4	0	0	0	0	683	487	
5	0	0	0	0	583	478	
6	0	0	0	0	576	483	
7	0	0	0	0	558	540	
8	0	0	0	0	522	567	
9	0	0	0	0	440	567	
10	0	0	0	0	383	564	
11	0	0	0	0	403	505	
12	0	0	0	0	450	498	
13	0	0	0	0	503	553	
14	0	0	0	0	472	470	
15	0	0	0	0	446	574	
0	0	0	0	0	467	641	
1	0	0	0	0	515	522	
2	0	0	0	0	502	519	
3	0	0	0	0	572	492	
4	0	0	0	0	572	463	
5	0	0	0	0	428	466	
6	0	0	0	0	410	483	
7	0	0	0	0	512	476	
8	0	0	0	0	483	479	
9	0	0	0	0	475	487	
10	0	0	0	0	457	509	
11	0	0	0	0	530	536	
12	0	0	0	0	615	542	
13	0	0	0	0	620	563	
14	0	0	0	0	471	553	
15	0	0	0	0	409	489	
0	0	0	0	0	405	487	
1	0	0	0	0	463	498	
2	0	0	0	0	571	511	
3	0	0	0	0	594	504	
4	0	0	0	0	564	477	
5	0	0	0	0	552	460	
6	0	0	0	0	597	483	
7	0	0	0	0	543	513	
8	0	0	0	0	519	516	
9	0	0	0	0	473	505	
10	0	0	0	0	444	565	
11	0	0	0	0	400	563	
12	0	0	0	0	429	512	
13	0	0	0	0	461	504	
14	0	0	0	0	521	546	
15	0	0	0	0	516	519	
0	0	0	0	0	525	488	
1	0	0	0	0	487	478	
2	0	0	0	0	487	492	
3	0	0	0	0	534	565	
4	0	0	0	0	600	605	
5	0	0	0	0	632	540	
6	0	0	0	0	591	469	
7	0	0	0	0	589	443	
8	0	0	0	0	535	488	
9	0	0	0	0	415	480	
10	0	0	0	0	346	458	
11	0	0	0	0	318	463	
12	0	0	0	0	379	495	
13	0	0	0	0	559	509	
14	0	0	0	0	588	485	
15	0	0	0	0	567	580	
0	0	0	0	0	580	572	
1	0	0	0	0	504	541	
2	0	0	0	0	478	537	
3	0	0	0	0	519	697	
4	0	0	0	0	487	625	
5	0	0	0	0	432	472	
6	0	0	0	0	457	410	
7	0	0	0	0	542	435	
8	0	0	0	0	561	447	
9	0	0	0	0	573	467	
10	0	0	0	0	600	516	
11	0	0	0	0	599	497	
12	0	0	0	0	509	486	
13	0	0	0	0	391	482	
14	0	0	0	0	352	519	
15	0	0	0	0	412	535	
0	0	0	0	0	483	511	
1	0	0	0	0	502	524	
2	0	0	0	0	479	527	
3	0	0	0	0	493	556	
4	0	0	0	0	523	535	
5	0	0	0	0	579	525	
6	0	0	0	0	578	504	
7	0	0	0	0	529	492	
8	0	0	0	0	480	486	
9	0	0	0	0	486	502	
10	0	0	0	0	495	496	
11	0	0	0	0	566	517	
12	0	0	0	0	577	523	
13	0	0	0	0	534	509	
14	0	0	0	0	471	516	
15	0	0	0	0	374	491	
0	0	0	0	0	414	476	
1	0	0	0	0	488	491	
2	0	0	0	0	554	494	
3	0	0	0	0	552	496	
4	0	0	0	0	423	539	
5	0	0	0	0	400	615	
6	0	0	0	0	485	555	
7	0	0	0	0	545	507	
8	0	0	0	0	608	482	
9	0	0	0	0	697	496	
10	0	0	0	0	598	518	
11	0	0	0	0	499	530	
12	0	0	0	0	484	491	
13	0	0	0	0	487	545	
14	0	0	0	0	499	605	
15	0	0	0	0	487	570	
0	0	0	0	0	480	505	
1	0	0	0	0	484	483	
2	0	0	0	0	495	470	
3	0	0	0	0	500	471	
4	0	0	0	0	479	455	
5	0	0	0	0	469	481	
6	0	0	0	0	521	547	
7	0	0	0	0	543	440	
8	0	0	0	0	521	519	
9	0	0	0	0	473	526	
10	0	0	0	0	472	511	
11	0	0	0	0	506	524	
12	0	0	0	0	523	443	
13	0	0	0	0	546	462	
14	0	0	0	0	536	455	
15	0	0	0	0	493	480	
0	0	0	0	0	551	564	
1	0	0	0	0	510	678	
2	0	0	0	0	391	621	
3	0	0	0	0	326	568	
4	0	0	0	0	430	549	
5	0	0	0	0	548	516	
6	0	0	0	0	630	454	
7	0	0	0	0	686	455	
8	0	0	0	0	567	451	
9	0	0	0	0	471	429	
10	0	0	0	0	468	456	
11	0	0	0	0	458	491	
12	0	0	0	0	481	543	
13	0	0	0	0	504	557	
14	0	0	0	0	549	607	
15	0	0	0	0	557	557	
0	0	0	0	0	536	513	
1	0	0	0	0	495	484	
2	0	0	0	0	422	484	
3	0	0	0	0	419	467	
4	0	0	0	0	481	449	
5	0	0	0	0	511	487	
6	0	0	0	0	494	527	
7	0	0	0	0	478	548	
8	0	0	0	0	515	548	
9	0	0	0	0	540	635	
10	0	0	0	0	498	571	
11	0	0	0	0	481	490	
12	0	0	0	0	476	447	
13	0	0	0	0	481	464	
14	0	0	0	0	538	485	
15	0	0	0	0	510	494	
0	0	0	0	0	511	481	
1	0	0	0	0	570	498	
2	0	0	0	0	583	517	
3	0	0	0	0	514	504	
4	0	0	0	0	492	536	
5	0	0	0	0	436	582	
6	0	0	0	0	370	623	
7	0	0	0	0	351	590	
8	0	0	0	0	417	570	
9	0	0	0	0	575	490	
10	0	0	0	0	726	430	
11	0	0	0	0	842	389	
12	0	0	0	0	632	394	
13	0	0	0	0	504	462	
14	0	0	0	0	429	471	
15	0	0	0	0	459	494	
0	0	0	0	0	519	532	
1	0	0	0	0	445	593	
2	0	0	0	0	398	607	
3	0	0	0	0	459	530	
4	0	0	0	0	486	462	
5	0	0	0	0	511	424	
6	0	0	0	0	552	441	
7	0	0	0	0	536	483	
8	0	0	0	0	544	553	
9	0	0	0	0	437	627	
10	0	0	0	0	401	609	
11	0	0	0	0	433	555	
12	0	0	0	0	494	540	
13	0	0	0	0	527	538	
14	0	0	0	0	562	504	
15	0	0	0	0	520	481	
0	0	0	0	0	421	475	
1	0	0	0	0	466	461	
2	0	0	0	0	561	481	
3	0	0	0	0	627	479	
4	0	0	0	0	560	460	
5	0	0	0	0	510	503	
6	0	0	0	0	412	541	
7	0	0	0	0	406	543	
8	0	0	0	0	464	578	
9	0	0	0	0	538	535	
10	0	0	0	0	587	433	
11	0	0	0	0	551	480	
12	0	0	0	0	534	496	
13	0	0	0	0	465	463	
14	0	0	0	0	478	518	
15	0	0	0	0	516	594	
0	0	0	0	0	499	558	
1	0	0	0	0	480	523	
2	0	0	0	0	394	557	
3	0	0	0	0	485	536	
4	0	0	0	0	572	523	
5	0	0	0	0	622	530	
6	0	0	0	0	624	441	
7	0	0	0	0	639	455	
8	0	0	0	0	552	447	
9	0	0	0	0	442	465	
10	0	0	0	0	397	533	
11	0	0	0	0	436	634	
12	0	0	0	0	490	606	
13	0	0	0	0	495	581	
14	0	0	0	0	507	545	
15	0	0	0	0	526	485	
0	0	0	0	0	510	429	
1	0	0	0	0	458	424	
2	0	0	0	0	497	422	
3	0	0	0	0	528	416	
4	0	0	0	0	489	457	
5	0	0	0	0	435	516	
6	0	0	0	0	405	609	
7	0	0	0	0	455	577	
8	0	0	0	0	543	576	
9	0	0	0	0	541	510	
10	0	0	0	0	521	484	
11	0	0	0	0	519	496	
12	0	0	0	0	483	499	
13	0	0	0	0	468	493	
14	0	0	0	0	478	507	
15	0	0	0	0	537	521	
0	0	0	0	0	571	511	
1	0	0	0	0	545	518	
2	0	0	0	0	528	523	
3	0	0	0	0	494	531	
4	0	0	0	0	474	577	
5	0	0	0	0	408	582	
6	0	0	0	0	457	471	
7	0	0	0	0	548	469	
8	0	0	0	0	622	497	
9	0	0	0	0	620	487	
10	0	0	0	0	664	483	
11	0	0	0	0	532	505	
12	0	0	0	0	491	510	
13	0	0	0	0	418	465	
14	0	0	0	0	458	489	
15	0	0	0	0	478	506	
0	0	0	0	0	467	550	
1	0	0	0	0	492	570	
2	0	0	0	0	494	492	
3	0	0	0	0	433	574	
4	0	0	0	0	391	573	
5	0	0	0	0	432	555	
6	0	0	0	0	585	547	
7	0	0	0	0	610	492	
8	0	0	0	0	601	435	
9	0	0	0	0	600	448	
10	0	0	0	0	508	506	
11	0	0	0	0	472	482	
12	0	0	0	0	498	470	
13	0	0	0	0	502	520	
14	0	0	0	0	486	577	
15	0	0	0	0	526	499	
0	0	0	0	0	540	499	
1	0	0	0	0	508	511	
2	0	0	0	0	505	524	
3	0	0	0	0	563	559	
4	0	0	0	0	508	551	
5	0	0	0	0	446	517	
6	0	0	0	0	387	550	
7	0	0	0	0	460	496	
8	0	0	0	0	481	525	
9	0	0	0	0	508	505	
10	0	0	0	0	444	450	
11	0	0	0	0	453	470	
12	0	0	0	0	513	511	
13	0	0	0	0	565	540	
14	0	0	0	0	607	507	
15	0	0	0	0	516	522	
0	0	0	0	0	447	473	
1	0	0	0	0	482	441	
2	0	0	0	0	505	470	
3	0	0	0	0	479	534	
4	0	0	0	0	457	505	
5	0	0	0	0	399	485	
6	0	0	0	0	400	577	
7	0	0	0	0	480	574	
8	0	0	0	0	519	541	
9	0	0	0	0	600	466	
10	0	0	0	0	696	466	
11	0	0	0	0	556	510	
12	0	0	0	0	443	553	
13	0	0	0	0	432	544	
14	0	0	0	0	495	504	
15	0	0	0	0	578	507	
0	0	0	0	0	716	501	
1	0	0	0	0	674	462	
2	0	0	0	0	555	481	
3	0	0	0	0	500	539	
4	0	0	0	0	492	579	
5	0	0	0	0	476	622	
6	0	0	0	0	479	644	
7	0	0	0	0	477	567	
8	0	0	0	0	437	473	
9	0	0	0	0	444	440	
10	0	0	0	0	496	463	
11	0	0	0	0	460	417	
12	0	0	0	0	475	408	
13	0	0	0	0	517	440	
14	0	0	0	0	518	461	
15	0	0	0	0	492	483	
0	0	0	0	0	443	519	
1	0	0	0	0	534	529	
2	0	0	0	0	560	545	
3	0	0	0	0	519	656	
4	0	0	0	0	472	605	
5	0	0	0	0	428	489	
6	0	0	0	0	439	551	
7	0	0	0	0	465	521	
8	0	0	0	0	564	460	
9	0	0	0	0	547	467	
10	0	0	0	0	551	493	
11	0	0	0	0	588	499	
12	0	0	0	0	569	511	
13	0	0	0	0	503	526	
14	0	0	0	0	437	536	
15	0	0	0	0	376	552	
0	0	0	0	0	350	504	
1	0	0	0	0	420	487	
2	0	0	0	0	589	447	
3	0	0	0	0	683	443	
4	0	0	0	0	608	456	
5	0	0	0	0	495	467	
6	0	0	0	0	487	536	
7	0	0	0	0	474	714	
8	0	0	0	0	466	529	
9	0	0	0	0	507	513	
10	0	0	0	0	518	526	
11	0	0	0	0	542	597	
12	0	0	0	0	553	542	
13	0	0	0	0	502	519	
14	0	0	0	0	457	463	
15	0	0	0	0	455	492	
0	0	0	0	0	400	463	
1	0	0	0	0	339	504	
2	0	0	0	0	383	544	
3	0	0	0	0	514	554	
4	0	0	0	0	604	512	
5	0	0	0	0	721	479	
6	0	0	0	0	739	389	
7	0	0	0	0	644	444	
8	0	0	0	0	475	419	
9	0	0	0	0	479	409	
10	0	0	0	0	534	485	
11	0	0	0	0	513	538	
12	0	0	0	0	463	613	
13	0	0	0	0	467	627	
14	0	0	0	0	451	691	
15	0	0	0	0	434	552	
0	0	0	0	0	456	504	
1	0	0	0	0	489	487	
2	0	0	0	0	541	519	
3	0	0	0	0	551	500	
4	0	0	0	0	493	480	
5	0	0	0	0	434	475	
6	0	0	0	0	498	479	
7	0	0	0	0	542	471	
8	0	0	0	0	469	478	
9	0	0	0	0	393	480	
10	0	0	0	0	414	483	
11	0	0	0	0	515	501	
12	0	0	0	0	595	512	
13	0	0	0	0	563	496	
14	0	0	0	0	543	494	
15	0	0	0	0	568	516	
0	0	0	0	0	518	613	
1	0	0	0	0	559	564	
2	0	0	0	0	539	547	
3	0	0	0	0	457	576	
4	0	0	0	0	441	613	
5	0	0	0	0	414	600	
6	0	0	0	0	386	464	
7	0	0	0	0	467	472	
8	0	0	0	0	559	483	
9	0	0	0	0	610	478	
10	0	0	0	0	612	449	
11	0	0	0	0	623	468	
12	0	0	0	0	536	478	
13	0	0	0	0	425	478	
14	0	0	0	0	419	486	
15	0	0	0	0	433	507	
0	0	0	0	0	467	527	
1	0	0	0	0	462	571	
2	0	0	0	0	521	584	
3	0	0	0	0	510	485	
4	0	0	0	0	545	465	
5	0	0	0	0	485	457	
6	0	0	0	0	386	497	
7	0	0	0	0	505	493	
8	0	0	0	0	618	575	
9	0	0	0	0	665	543	
10	0	0	0	0	637	539	
11	0	0	0	0	602	541	
12	0	0	0	0	504	480	
13	0	0	0	0	467	528	
14	0	0	0	0	423	496	
15	0	0	0	0	436	485	
0	0	0	0	0	421	461	
1	0	0	0	0	403	440	
2	0	0	0	0	415	448	
3	0	0	0	0	451	487	
4	0	0	0	0	514	533	
5	0	0	0	0	560	551	
6	0	0	0	0	561	579	
7	0	0	0	0	575	595	
8	0	0	0	0	541	601	
9	0	0	0	0	481	511	
10	0	0	0	0	496	511	
11	0	0	0	0	510	484	
12	0	0	0	0	536	469	
13	0	0	0	0	574	477	
14	0	0	0	0	470	502	
15	0	0	0	0	519	565	
0	0	0	0	0	497	603	
1	0	0	0	0	480	713	
2	0	0	0	0	449	512	
3	0	0	0	0	402	345	
4	0	0	0	0	435	423	
5	0	0	0	0	549	473	
6	0	0	0	0	647	443	
7	0	0	0	0	667	433	
8	0	0	0	0	609	441	
9	0	0	0	0	539	468	
10	0	0	0	0	504	531	
11	0	0	0	0	507	565	
12	0	0	0	0	462	596	
13	0	0	0	0	429	624	
14	0	0	0	0	432	560	
15	0	0	0	0	423	482	
0	0	0	0	0	396	469	
1	0	0	0	0	444	494	
2	0	0	0	0	500	522	
3	0	0	0	0	419	518	
4	0	0	0	0	470	499	
5	0	0	0	0	527	568	
6	0	0	0	0	590	509	
7	0	0	0	0	585	500	
8	0	0	0	0	544	521	
9	0	0	0	0	531	503	
10	0	0	0	0	588	472	
11	0	0	0	0	643	476	
12	0	0	0	0	539	464	
13	0	0	0	0	495	496	
14	0	0	0	0	527	504	
15	0	0	0	0	449	519	
0	0	0	0	0	419	548	
1	0	0	0	0	420	579	
2	0	0	0	0	433	507	
3	0	0	0	0	483	492	
4	0	0	0	0	496	591	
5	0	0	0	0	427	584	
6	0	0	0	0	512	544	
7	0	0	0	0	575	478	
8	0	0	0	0	528	377	
9	0	0	0	0	522	455	
10	0	0	0	0	586	513	
11	0	0	0	0	552	539	
12	0	0	0	0	481	536	
13	0	0	0	0	470	551	
14	0	0	0	0	509	544	
15	0	0	0	0	544	471	
0	0	0	0	0	536	471	
1	0	0	0	0	523	485	
2	0	0	0	0	499	519	
3	0	0	0	0	509	556	
4	0	0	0	0	534	696	
5	0	0	0	0	480	526	
6	0	0	0	0	396	451	
7	0	0	0	0	316	428	
8	0	0	0	0	364	447	
9	0	0	0	0	498	460	
10	0	0	0	0	608	472	
11	0	0	0	0	731	556	
12	0	0	0	0	659	475	
13	0	0	0	0	556	497	
14	0	0	0	0	455	544	
15	0	0	0	0	386	540	
0	0	0	0	0	417	512	
1	0	0	0	0	508	468	
2	0	0	0	0	537	554	
3	0	0	0	0	540	521	
4	0	0	0	0	535	520	
5	0	0	0	0	541	544	
6	0	0	0	0	552	561	
7	0	0	0	0	494	587	
8	0	0	0	0	513	562	
9	0	0	0	0	545	510	
10	0	0	0	0	599	476	
11	0	0	0	0	619	411	
12	0	0	0	0	568	499	
13	0	0	0	0	393	499	
14	0	0	0	0	333	502	
15	0	0	0	0	380	524	
0	0	0	0	0	446	504	
1	0	0	0	0	490	499	
2	0	0	0	0	551	495	
3	0	0	0	0	488	500	
4	0	0	0	0	469	510	
5	0	0	0	0	472	545	
6	0	0	0	0	476	561	
7	0	0	0	0	478	507	
8	0	0	0	0	498	437	
9	0	0	0	0	476	419	
10	0	0	0	0	507	469	
11	0	0	0	0	549	511	
12	0	0	0	0	565	592	
13	0	0	0	0	550	691	
14	0	0	0	0	537	694	
15	0	0	0	0	493	551	
0	0	0	0	0	487	365	
1	0	0	0	0	475	389	
2	0	0	0	0	516	416	
3	0	0	0	0	522	427	
4	0	0	0	0	439	517	
5	0	0	0	0	497	551	
6	0	0	0	0	547	558	
7	0	0	0	0	580	513	
8	0	0	0	0	565	548	
9	0	0	0	0	529	566	
10	0	0	0	0	451	543	
11	0	0	0	0	435	564	
12	0	0	0	0	469	490	
13	0	0	0	0	516	484	
14	0	0	0	0	608	439	
15	0	0	0	0	629	410	
0	0	0	0	0	528	449	
1	0	0	0	0	413	488	
2	0	0	0	0	342	503	
3	0	0	0	0	386	539	
4	0	0	0	0	495	581	
5	0	0	0	0	553	572	
6	0	0	0	0	563	511	
7	0	0	0	0	600	559	
8	0	0	0	0	510	591	
9	0	0	0	0	540	519	
10	0	0	0	0	563	493	
11	0	0	0	0	465	488	
12	0	0	0	0	407	491	
13	0	0	0	0	472	496	
14	0	0	0	0	384	506	
15	0	0	0	0	435	532	
0	0	0	0	0	635	504	
1	0	0	0	0	713	500	
2	0	0	0	0	620	513	
3	0	0	0	0	537	539	
4	0	0	0	0	528	533	
5	0	0	0	0	556	524	
6	0	0	0	0	499	507	
7	0	0	0	0	501	499	
8	0	0	0	0	538	483	
9	0	0	0	0	518	455	
10	0	0	0	0	522	448	
11	0	0	0	0	417	469	
12	0	0	0	0	332	487	
13	0	0	0	0	425	530	
14	0	0	0	0	471	602	
15	0	0	0	0	524	605	
0	0	0	0	0	525	474	
1	0	0	0	0	466	440	
2	0	0	0	0	402	497	
3	0	0	0	0	424	528	
4	0	0	0	0	512	551	
5	0	0	0	0	513	570	
6	0	0	0	0	489	484	
7	0	0	0	0	523	529	
8	0	0	0	0	525	536	
9	0	0	0	0	534	553	
10	0	0	0	0	497	545	
11	0	0	0	0	520	545	
12	0	0	0	0	575	544	
13	0	0	0	0	568	494	
14	0	0	0	0	561	497	
15	0	0	0	0	590	502	
0	0	0	0	0	577	435	
1	0	0	0	0	502	422	
2	0	0	0	0	419	439	
3	0	0	0	0	397	478	
4	0	0	0	0	439	517	
5	0	0	0	0	495	528	
6	0	0	0	0	545	533	
7	0	0	0	0	492	562	
8	0	0	0	0	462	519	
9	0	0	0	0	461	493	
10	0	0	0	0	441	511	
11	0	0	0	0	513	512	
12	0	0	0	0	624	503	
13	0	0	0	0	657	506	
14	0	0	0	0	604	511	
15	0	0	0	0	641	512	
0	0	0	0	0	556	496	
1	0	0	0	0	418	510	
2	0	0	0	0	421	483	
3	0	0	0	0	449	481	
4	0	0	0	0	478	536	
5	0	0	0	0	459	597	
6	0	0	0	0	459	628	
7	0	0	0	0	466	658	
8	0	0	0	0	519	559	
9	0	0	0	0	557	450	
10	0	0	0	0	515	407	
11	0	0	0	0	451	434	
12	0	0	0	0	423	485	
13	0	0	0	0	482	495	
14	0	0	0	0	505	499	
15	0	0	0	0	476	500	
0	0	0	0	0	521	498	
1	0	0	0	0	579	510	
2	0	0	0	0	477	501	
3	0	0	0	0	442	491	
4	0	0	0	0	478	487	
5	0	0	0	0	551	504	
6	0	0	0	0	614	577	
7	0	0	0	0	679	619	
8	0	0	0	0	627	681	
9	0	0	0	0	513	536	
10	0	0	0	0	458	481	
11	0	0	0	0	399	417	
12	0	0	0	0	335	397	
13	0	0	0	0	292	413	
14	0	0	0	0	324	425	
15	0	0	0	0	425	515	
0	0	0	0	0	622	529	
1	0	0	0	0	737	529	
2	0	0	0	0	629	516	
3	0	0	0	0	489	546	
4	0	0	0	0	465	536	
5	0	0	0	0	475	542	
6	0	0	0	0	443	547	
7	0	0	0	0	480	595	
8	0	0	0	0	543	579	
9	0	0	0	0	559	483	
10	0	0	0	0	567	455	
11	0	0	0	0	659	494	
12	0	0	0	0	657	531	
13	0	0	0	0	618	481	
14	0	0	0	0	581	448	
15	0	0	0	0	489	507	
0	0	0	0	0	444	521	
1	0	0	0	0	483	515	
2	0	0	0	0	486	519	
3	0	0	0	0	422	499	
4	0	0	0	0	380	492	
5	0	0	0	0	424	526	
6	0	0	0	0	461	570	
7	0	0	0	0	496	536	
8	0	0	0	0	503	501	
9	0	0	0	0	511	485	
10	0	0	0	0	449	496	
11	0	0	0	0	473	503	
12	0	0	0	0	481	510	
13	0	0	0	0	457	572	
14	0	0	0	0	487	560	
15	0	0	0	0	510	483	
0	0	0	0	0	578	486	
1	0	0	0	0	665	513	
2	0	0	0	0	645	521	
3	0	0	0	0	618	495	
4	0	0	0	0	420	497	
5	0	0	0	0	288	458	
6	0	0	0	0	356	501	
7	0	0	0	0	399	501	
8	0	0	0	0	524	526	
9	0	0	0	0	632	580	
10	0	0	0	0	621	507	
11	0	0	0	0	538	547	
12	0	0	0	0	482	537	
13	0	0	0	0	364	484	
14	0	0	0	0	361	459	
15	0	0	0	0	455	430	
0	0	0	0	0	560	381	
1	0	0	0	0	694	426	
2	0	0	0	0	609	534	
3	0	0	0	0	427	577	
4	0	0	0	0	417	689	
5	0	0	0	0	452	746	
6	0	0	0	0	454	600	
7	0	0	0	0	555	503	
8	0	0	0	0	701	466	
9	0	0	0	0	638	449	
10	0	0	0	0	650	512	
11	0	0	0	0	648	474	
12	0	0	0	0	505	455	
13	0	0	0	0	407	442	
14	0	0	0	0	412	466	
15	0	0	0	0	403	502	
0	0	0	0	0	365	496	
1	0	0	0	0	461	528	
2	0	0	0	0	592	423	
3	0	0	0	0	564	462	
4	0	0	0	0	577	515	
5	0	0	0	0	510	518	
6	0	0	0	0	483	540	
7	0	0	0	0	454	576	
8	0	0	0	0	394	548	
9	0	0	0	0	459	577	
10	0	0	0	0	551	528	
11	0	0	0	0	606	511	
12	0	0	0	0	543	487	
13	0	0	0	0	486	504	
14	0	0	0	0	519	499	
15	0	0	0	0	566	502	
0	0	0	0	0	548	505	
1	0	0	0	0	426	513	
2	0	0	0	0	390	508	
3	0	0	0	0	442	499	
4	0	0	0	0	444	499	
5	0	0	0	0	454	522	
6	0	0	0	0	444	491	
7	0	0	0	0	465	542	
8	0	0	0	0	441	539	
9	0	0	0	0	470	585	
10	0	0	0	0	519	594	
11	0	0	0	0	527	543	
12	0	0	0	0	515	571	
13	0	0	0	0	451	475	
14	0	0	0	0	394	425	
15	0	0	0	0	380	430	
0	0	0	0	0	484	452	
1	0	0	0	0	685	466	
2	0	0	0	0	814	436	
3	0	0	0	0	822	437	
4	0	0	0	0	725	488	
5	0	0	0	0	572	550	
6	0	0	0	0	505	608	
7	0	0	0	0	469	641	
8	0	0	0	0	488	553	
9	0	0	0	0	484	564	
10	0	0	0	0	451	547	
11	0	0	0	0	433	457	
12	0	0	0	0	401	422	
13	0	0	0	0	364	408	
14	0	0	0	0	428	499	
15	0	0	0	0	466	495	
0	0	0	0	0	518	531	
1	0	0	0	0	511	519	
2	0	0	0	0	460	651	
3	0	0	0	0	476	615	
4	0	0	0	0	471	548	
5	0	0	0	0	473	527	
6	0	0	0	0	476	416	
7	0	0	0	0	499	425	
8	0	0	0	0	511	468	
9	0	0	0	0	579	520	
10	0	0	0	0	633	508	
11	0	0	0	0	643	475	
12	0	0	0	0	626	492	
13	0	0	0	0	541	513	
14	0	0	0	0	476	513	
15	0	0	0	0	503	555	
0	0	0	0	0	482	561	
1	0	0	0	0	503	527	
2	0	0	0	0	504	553	
3	0	0	0	0	421	545	
4	0	0	0	0	435	510	
5	0	0	0	0	465	492	
6	0	0	0	0	434	440	
7	0	0	0	0	504	469	
8	0	0	0	0	507	468	
9	0	0	0	0	455	472	
10	0	0	0	0	419	507	
11	0	0	0	0	473	525	
12	0	0	0	0	537	504	
13	0	0	0	0	572	518	
14	0	0	0	0	577	577	
15	0	0	0	0	478	547	
0	0	0	0	0	487	540	
1	0	0	0	0	459	522	
2	0	0	0	0	409	488	
3	0	0	0	0	502	494	
4	0	0	0	0	538	473	
5	0	0	0	0	546	508	
6	0	0	0	0	635	503	
7	0	0	0	0	594	553	
8	0	0	0	0	499	537	
9	0	0	0	0	532	627	
10	0	0	0	0	541	550	
11	0	0	0	0	533	494	
12	0	0	0	0	501	480	
13	0	0	0	0	580	462	
14	0	0	0	0	592	433	
15	0	0	0	0	514	415	
0	0	0	0	0	430	489	
1	0	0	0	0	382	569	
2	0	0	0	0	432	588	
3	0	0	0	0	472	590	
4	0	0	0	0	481	538	
5	0	0	0	0	492	503	
6	0	0	0	0	506	485	
7	0	0	0	0	453	462	
8	0	0	0	0	394	449	
9	0	0	0	0	371	454	
10	0	0	0	0	456	513	
11	0	0	0	0	557	555	
12	0	0	0	0	681	622	
13	0	0	0	0	682	543	
14	0	0	0	0	652	476	
15	0	0	0	0	575	483	
0	0	0	0	0	481	475	
1	0	0	0	0	460	492	
2	0	0	0	0	458	487	
3	0	0	0	0	482	484	
4	0	0	0	0	513	508	
5	0	0	0	0	528	513	
6	0	0	0	0	497	523	
7	0	0	0	0	491	545	
8	0	0	0	0	488	584	
9	0	0	0	0	432	560	
10	0	0	0	0	403	518	
11	0	0	0	0	470	491	
12	0	0	0	0	542	507	
13	0	0	0	0	539	507	
14	0	0	0	0	529	510	
15	0	0	0	0	491	516	
0	0	0	0	0	417	520	
1	0	0	0	0	493	535	
2	0	0	0	0	539	519	
3	0	0	0	0	511	461	
4	0	0	0	0	536	409	
5	0	0	0	0	502	423	
6	0	0	0	0	531	494	
7	0	0	0	0	620	637	
8	0	0	0	0	581	585	
9	0	0	0	0	513	526	
10	0	0	0	0	495	512	
11	0	0	0	0	438	544	
12	0	0	0	0	455	495	
13	0	0	0	0	465	475	
14	0	0	0	0	428	471	
15	0	0	0	0	438	483	
0	0	0	0	0	495	504	
1	0	0	0	0	532	512	
2	0	0	0	0	608	513	
3	0	0	0	0	582	496	
4	0	0	0	0	567	502	
5	0	0	0	0	522	500	
6	0	0	0	0	444	500	
7	0	0	0	0	441	522	
8	0	0	0	0	496	562	
9	0	0	0	0	448	538	
10	0	0	0	0	424	537	
11	0	0	0	0	495	524	
12	0	0	0	0	509	524	
13	0	0	0	0	493	504	
14	0	0	0	0	564	508	
15	0	0	0	0	624	505	
0	0	0	0	0	613	526	
1	0	0	0	0	486	505	
2	0	0	0	0	355	488	
3	0	0	0	0	414	504	
4	0	0	0	0	480	473	
5	0	0	0	0	588	465	
6	0	0	0	0	648	457	
7	0	0	0	0	627	519	
8	0	0	0	0	507	557	
9	0	0	0	0	440	551	
10	0	0	0	0	413	581	
11	0	0	0	0	460	531	
12	0	0	0	0	487	546	
13	0	0	0	0	504	489	
14	0	0	0	0	635	534	
15	0	0	0	0	639	482	
0	0	0	0	0	547	456	
1	0	0	0	0	539	485	
2	0	0	0	0	518	501	
3	0	0	0	0	434	504	
4	0	0	0	0	403	522	
5	0	0	0	0	475	588	
6	0	0	0	0	492	529	
7	0	0	0	0	452	531	
8	0	0	0	0	449	501	
9	0	0	0	0	465	516	
10	0	0	0	0	492	493	
11	0	0	0	0	529	510	
12	0	0	0	0	539	488	
13	0	0	0	0	525	463	
14	0	0	0	0	490	436	
15	0	0	0	0	474	487	
0	0	0	0	0	464	659	
1	0	0	0	0	455	551	
2	0	0	0	0	455	517	
3	0	0	0	0	461	511	
4	0	0	0	0	512	573	
5	0	0	0	0	494	502	
6	0	0	0	0	491	469	
7	0	0	0	0	575	497	
8	0	0	0	0	581	493	
9	0	0	0	0	503	482	
10	0	0	0	0	495	465	
11	0	0	0	0	481	494	
12	0	0	0	0	473	544	
13	0	0	0	0	616	538	
14	0	0	0	0	537	499	
15	0	0	0	0	480	475	
0	0	0	0	0	525	545	
1	0	0	0	0	590	491	
2	0	0	0	0	594	505	
3	0	0	0	0	558	521	
4	0	0	0	0	447	520	
5	0	0	0	0	441	542	
6	0	0	0	0	475	528	
7	0	0	0	0	541	528	
8	0	0	0	0	563	490	
9	0	0	0	0	500	493	
10	0	0	0	0	452	509	
11	0	0	0	0	448	506	
12	0	0	0	0	459	516	
13	0	0	0	0	459	551	
14	0	0	0	0	467	538	
15	0	0	0	0	483	478	
0	0	0	0	0	517	482	
1	0	0	0	0	532	482	
2	0	0	0	0	567	488	
3	0	0	0	0	583	487	
4	0	0	0	0	545	532	
5	0	0	0	0	514	587	
6	0	0	0	0	484	556	
7	0	0	0	0	482	573	
8	0	0	0	0	493	510	
9	0	0	0	0	480	518	
10	0	0	0	0	487	476	
11	0	0	0	0	503	467	
12	0	0	0	0	509	460	
13	0	0	0	0	499	461	
14	0	0	0	0	489	474	
15	0	0	0	0	478	483	
0	0	0	0	0	416	487	
1	0	0	0	0	403	527	
2	0	0	0	0	481	559	
3	0	0	0	0	516	545	
4	0	0	0	0	508	562	
5	0	0	0	0	616	617	
6	0	0	0	0	646	524	
7	0	0	0	0	624	488	
8	0	0	0	0	482	448	
9	0	0	0	0	480	455	
10	0	0	0	0	524	462	
11	0	0	0	0	511	496	
12	0	0	0	0	511	532	
13	0	0	0	0	519	611	
14	0	0	0	0	529	521	
15	0	0	0	0	477	555	
0	0	0	0	0	431	507	
1	0	0	0	0	461	486	
2	0	0	0	0	484	471	
3	0	0	0	0	497	464	
4	0	0	0	0	479	499	
5	0	0	0	0	444	524	
6	0	0	0	0	440	558	
7	0	0	0	0	482	543	
8	0	0	0	0	531	522	
9	0	0	0	0	583	499	
10	0	0	0	0	622	492	
11	0	0	0	0	580	500	
12	0	0	0	0	517	531	
13	0	0	0	0	484	568	
14	0	0	0	0	499	588	
15	0	0	0	0	546	521	
0	0	0	0	0	540	492	
1	0	0	0	0	462	488	
2	0	0	0	0	467	483	
3	0	0	0	0	436	467	
4	0	0	0	0	436	473	
5	0	0	0	0	484	503	
6	0	0	0	0	537	487	
7	0	0	0	0	585	471	
8	0	0	0	0	602	475	
9	0	0	0	0	503	508	
10	0	0	0	0	406	537	
11	0	0	0	0	480	515	
12	0	0	0	0	498	511	
13	0	0	0	0	452	449	
14	0	0	0	0	413	448	
15	0	0	0	0	476	511	
0	0	0	0	0	508	522	
1	0	0	0	0	536	579	
2	0	0	0	0	544	628	
3	0	0	0	0	556	692	
4	0	0	0	0	542	551	
5	0	0	0	0	503	507	
6	0	0	0	0	461	514	
7	0	0	0	0	358	477	
8	0	0	0	0	352	449	
9	0	0	0	0	550	443	
10	0	0	0	0	751	462	
11	0	0	0	0	793	500	
12	0	0	0	0	627	511	
13	0	0	0	0	433	495	
14	0	0	0	0	443	483	
15	0	0	0	0	436	447	
0	0	0	0	0	446	460	
1	0	0	0	0	497	529	
2	0	0	0	0	505	527	
3	0	0	0	0	530	576	
4	0	0	0	0	477	679	
5	0	0	0	0	491	596	
6	0	0	0	0	505	518	
7	0	0	0	0	436	510	
8	0	0	0	0	361	505	
9	0	0	0	0	342	505	
10	0	0	0	0	356	504	
11	0	0	0	0	459	511	
12	0	0	0	0	575	485	
13	0	0	0	0	645	468	
14	0	0	0	0	721	436	
15	0	0	0	0	687	436	
0	0	0	0	0	586	455	
1	0	0	0	0	502	506	
2	0	0	0	0	535	536	
3	0	0	0	0	539	582	
4	0	0	0	0	523	593	
5	0	0	0	0	507	588	
6	0	0	0	0	490	557	
7	0	0	0	0	451	492	
8	0	0	0	0	439	474	
9	0	0	0	0	432	491	
10	0	0	0	0	448	498	
11	0	0	0	0	473	483	
12	0	0	0	0	488	477	
13	0	0	0	0	604	531	
14	0	0	0	0	583	470	
15	0	0	0	0	533	489	
0	0	0	0	0	516	475	
1	0	0	0	0	449	454	
2	0	0	0	0	453	472	
3	0	0	0	0	463	471	
4	0	0	0	0	433	510	
5	0	0	0	0	471	568	
6	0	0	0	0	513	633	
7	0	0	0	0	527	668	
8	0	0	0	0	496	545	
9	0	0	0	0	483	529	
10	0	0	0	0	490	512	
11	0	0	0	0	475	472	
12	0	0	0	0	477	449	
13	0	0	0	0	543	472	
14	0	0	0	0	547	498	
15	0	0	0	0	572	495	
0	0	0	0	0	577	485	
1	0	0	0	0	505	495	
2	0	0	0	0	523	504	
3	0	0	0	0	536	520	
4	0	0	0	0	504	523	
5	0	0	0	0	473	524	
6	0	0	0	0	441	524	
7	0	0	0	0	430	525	
8	0	0	0	0	426	527	
9	0	0	0	0	529	514	
10	0	0	0	0	597	506	
11	0	0	0	0	599	519	
12	0	0	0	0	533	529	
13	0	0	0	0	473	494	
14	0	0	0	0	311	496	
15	0	0	0	0	292	516	
0	0	0	0	0	359	518	
1	0	0	0	0	543	493	
2	0	0	0	0	671	516	
3	0	0	0	0	775	491	
4	0	0	0	0	688	447	
5	0	0	0	0	617	408	
6	0	0	0	0	546	470	
7	0	0	0	0	491	487	
8	0	0	0	0	484	527	
9	0	0	0	0	547	610	
10	0	0	0	0	502	781	
11	0	0	0	0	503	605	
12	0	0	0	0	487	556	
13	0	0	0	0	357	478	
14	0	0	0	0	331	461	
15	0	0	0	0	443	499	
0	0	0	0	0	497	483	
1	0	0	0	0	599	476	
2	0	0	0	0	591	483	
3	0	0	0	0	472	507	
4	0	0	0	0	441	559	
5	0	0	0	0	469	502	
6	0	0	0	0	480	416	
7	0	0	0	0	508	401	
8	0	0	0	0	551	459	
9	0	0	0	0	558	528	
10	0	0	0	0	511	568	
11	0	0	0	0	523	573	
12	0	0	0	0	540	646	
13	0	0	0	0	473	537	
14	0	0	0	0	439	462	
15	0	0	0	0	434	473	
0	0	0	0	0	436	512	
1	0	0	0	0	467	516	
2	0	0	0	0	510	532	
3	0	0	0	0	505	480	
4	0	0	0	0	493	464	
5	0	0	0	0	422	463	
6	0	0	0	0	476	493	
7	0	0	0	0	637	524	
8	0	0	0	0	749	544	
9	0	0	0	0	676	493	
10	0	0	0	0	521	487	
11	0	0	0	0	486	520	
12	0	0	0	0	476	543	
13	0	0	0	0	361	558	
14	0	0	0	0	405	524	
15	0	0	0	0	459	477	
0	0	0	0	0	495	494	
1	0	0	0	0	416	483	
2	0	0	0	0	436	561	
3	0	0	0	0	526	543	
4	0	0	0	0	558	524	
5	0	0	0	0	702	480	
6	0	0	0	0	788	489	
7	0	0	0	0	616	519	
8	0	0	0	0	491	521	
9	0	0	0	0	448	531	
10	0	0	0	0	395	492	
11	0	0	0	0	435	491	
12	0	0	0	0	451	509	
13	0	0	0	0	487	507	
14	0	0	0	0	545	524	
15	0	0	0	0	548	531	
0	0	0	0	0	538	526	
1	0	0	0	0	463	519	
2	0	0	0	0	382	519	
3	0	0	0	0	342	516	
4	0	0	0	0	349	505	
5	0	0	0	0	500	493	
6	0	0	0	0	643	493	
7	0	0	0	0	604	486	
8	0	0	0	0	627	519	
9	0	0	0	0	615	518	
10	0	0	0	0	548	536	
11	0	0	0	0	410	534	
12	0	0	0	0	438	478	
13	0	0	0	0	431	480	
14	0	0	0	0	457	495	
15	0	0	0	0	504	488	
0	0	0	0	0	555	561	
1	0	0	0	0	577	671	
2	0	0	0	0	559	553	
3	0	0	0	0	467	474	
4	0	0	0	0	409	497	
5	0	0	0	0	491	542	
6	0	0	0	0	523	483	
7	0	0	0	0	494	473	
8	0	0	0	0	482	488	
9	0	0	0	0	459	497	
10	0	0	0	0	498	502	
11	0	0	0	0	533	508	
12	0	0	0	0	515	496	
13	0	0	0	0	513	492	
14	0	0	0	0	551	487	
15	0	0	0	0	553	470	
0	0	0	0	0	503	432	
1	0	0	0	0	485	489	
2	0	0	0	0	470	533	
3	0	0	0	0	484	543	
4	0	0	0	0	516	596	
5	0	0	0	0	546	608	
6	0	0	0	0	521	624	
7	0	0	0	0	515	544	
8	0	0	0	0	516	510	
9	0	0	0	0	499	491	
10	0	0	0	0	505	485	
11	0	0	0	0	482	496	
12	0	0	0	0	461	512	
13	0	0	0	0	457	511	
14	0	0	0	0	467	472	
15	0	0	0	0	572	477	
0	0	0	0	0	635	530	
1	0	0	0	0	556	491	
2	0	0	0	0	485	494	
3	0	0	0	0	455	483	
4	0	0	0	0	471	483	
5	0	0	0	0	479	483	
6	0	0	0	0	454	486	
7	0	0	0	0	538	501	
8	0	0	0	0	574	511	
9	0	0	0	0	490	507	
10	0	0	0	0	527	522	
11	0	0	0	0	545	525	
12	0	0	0	0	527	528	
13	0	0	0	0	463	511	
14	0	0	0	0	455	519	
15	0	0	0	0	479	515	
0	0	0	0	0	479	531	
1	0	0	0	0	507	549	
2	0	0	0	0	595	575	
3	0	0	0	0	576	474	
4	0	0	0	0	508	467	
5	0	0	0	0	376	471	
6	0	0	0	0	339	494	
7	0	0	0	0	403	496	
8	0	0	0	0	497	504	
9	0	0	0	0	479	512	
10	0	0	0	0	521	534	
11	0	0	0	0	568	550	
12	0	0	0	0	611	542	
13	0	0	0	0	681	555	
14	0	0	0	0	690	531	
15	0	0	0	0	639	490	
0	0	0	0	0	479	436	
1	0	0	0	0	358	467	
2	0	0	0	0	401	496	
3	0	0	0	0	460	483	
4	0	0	0	0	504	485	
5	0	0	0	0	542	564	
6	0	0	0	0	531	567	
7	0	0	0	0	516	571	
8	0	0	0	0	505	556	
9	0	0	0	0	498	556	
10	0	0	0	0	457	530	
11	0	0	0	0	432	489	
12	0	0	0	0	451	487	
13	0	0	0	0	456	512	
14	0	0	0	0	447	517	
15	0	0	0	0	473	504	
0	0	0	0	0	533	500	
1	0	0	0	0	547	528	
2	0	0	0	0	537	479	
3	0	0	0	0	528	439	
4	0	0	0	0	547	467	
5	0	0	0	0	496	519	
6	0	0	0	0	540	569	
7	0	0	0	0	578	596	
8	0	0	0	0	527	580	
9	0	0	0	0	483	540	
10	0	0	0	0	474	455	
11	0	0	0	0	486	426	
12	0	0	0	0	510	480	
13	0	0	0	0	526	500	
14	0	0	0	0	564	566	
15	0	0	0	0	531	587	
0	0	0	0	0	463	525	
1	0	0	0	0	493	492	
2	0	0	0	0	504	507	
3	0	0	0	0	481	497	
4	0	0	0	0	449	485	
5	0	0	0	0	461	479	
6	0	0	0	0	463	501	
7	0	0	0	0	481	487	
8	0	0	0	0	572	489	
9	0	0	0	0	656	496	
10	0	0	0	0	633	491	
11	0	0	0	0	537	486	
12	0	0	0	0	469	508	
13	0	0	0	0	281	508	
14	0	0	0	0	244	524	
15	0	0	0	0	407	530	
0	0	0	0	0	582	519	
1	0	0	0	0	619	502	
2	0	0	0	0	588	512	
3	0	0	0	0	526	523	
4	0	0	0	0	503	537	
5	0	0	0	0	524	525	
6	0	0	0	0	595	489	
7	0	0	0	0	566	463	
8	0	0	0	0	521	471	
9	0	0	0	0	522	486	
10	0	0	0	0	524	489	
11	0	0	0	0	493	610	
12	0	0	0	0	479	732	
13	0	0	0	0	466	559	
14	0	0	0	0	446	481	
15	0	0	0	0	411	480	
0	0	0	0	0	392	486	
1	0	0	0	0	438	505	
2	0	0	0	0	523	515	
3	0	0	0	0	591	514	
4	0	0	0	0	583	491	
5	0	0	0	0	460	471	
6	0	0	0	0	393	494	
7	0	0	0	0	426	497	
8	0	0	0	0	485	507	
9	0	0	0	0	560	496	
10	0	0	0	0	604	527	
11	0	0	0	0	691	570	
12	0	0	0	0	714	540	
13	0	0	0	0	631	464	
14	0	0	0	0	515	417	
15	0	0	0	0	464	420	
0	0	0	0	0	454	462	
1	0	0	0	0	473	514	
2	0	0	0	0	480	584	
3	0	0	0	0	479	588	
4	0	0	0	0	486	628	
5	0	0	0	0	472	652	
6	0	0	0	0	443	514	
7	0	0	0	0	449	474	
8	0	0	0	0	486	482	
9	0	0	0	0	512	499	
10	0	0	0	0	544	491	
11	0	0	0	0	515	452	
12	0	0	0	0	445	458	
13	0	0	0	0	459	489	
14	0	0	0	0	538	499	
15	0	0	0	0	602	499	
0	0	0	0	0	574	506	
1	0	0	0	0	414	503	
2	0	0	0	0	367	537	
3	0	0	0	0	379	502	
4	0	0	0	0	390	498	
5	0	0	0	0	604	535	
6	0	0	0	0	672	560	
7	0	0	0	0	588	537	
8	0	0	0	0	483	474	
9	0	0	0	0	508	498	
10	0	0	0	0	523	507	
11	0	0	0	0	500	519	
12	0	0	0	0	432	542	
13	0	0	0	0	432	513	
14	0	0	0	0	510	490	
15	0	0	0	0	524	504	
0	0	0	0	0	518	504	
1	0	0	0	0	519	499	
2	0	0	0	0	530	532	
3	0	0	0	0	530	521	
4	0	0	0	0	548	523	
5	0	0	0	0	448	528	
6	0	0	0	0	371	532	
7	0	0	0	0	537	569	
8	0	0	0	0	687	525	
9	0	0	0	0	568	465	
10	0	0	0	0	518	465	
11	0	0	0	0	507	509	
12	0	0	0	0	472	527	
13	0	0	0	0	462	502	
14	0	0	0	0	540	501	
15	0	0	0	0	558	508	
0	0	0	0	0	534	518	
1	0	0	0	0	487	509	
2	0	0	0	0	449	488	
3	0	0	0	0	454	493	
4	0	0	0	0	497	549	
5	0	0	0	0	505	536	
6	0	0	0	0	502	487	
7	0	0	0	0	491	529	
8	0	0	0	0	489	547	
9	0	0	0	0	492	515	
10	0	0	0	0	512	513	
11	0	0	0	0	492	503	
12	0	0	0	0	440	494	
13	0	0	0	0	444	492	
14	0	0	0	0	437	504	
15	0	0	0	0	490	475	
0	0	0	0	0	495	469	
1	0	0	0	0	568	485	
2	0	0	0	0	668	455	
3	0	0	0	0	614	510	
4	0	0	0	0	513	554	
5	0	0	0	0	489	533	
6	0	0	0	0	510	568	
7	0	0	0	0	546	552	
8	0	0	0	0	527	598	
9	0	0	0	0	500	539	
10	0	0	0	0	485	588	
11	0	0	0	0	456	480	
12	0	0	0	0	452	460	
13	0	0	0	0	479	466	
14	0	0	0	0	495	484	
15	0	0	0	0	496	487	
0	0	0	0	0	519	488	
1	0	0	0	0	478	488	
2	0	0	0	0	483	489	
3	0	0	0	0	500	499	
4	0	0	0	0	511	512	
5	0	0	0	0	508	529	
6	0	0	0	0	514	537	
7	0	0	0	0	498	525	
8	0	0	0	0	505	514	
9	0	0	0	0	516	508	
10	0	0	0	0	548	516	
11	0	0	0	0	555	521	
12	0	0	0	0	533	522	
13	0	0	0	0	555	514	
14	0	0	0	0	479	525	
15	0	0	0	0	481	511	
0	0	0	0	0	465	505	
1	0	0	0	0	433	483	
2	0	0	0	0	501	485	
3	0	0	0	0	543	511	
4	0	0	0	0	531	522	
5	0	0	0	0	524	515	
6	0	0	0	0	531	508	
7	0	0	0	0	524	532	
8	0	0	0	0	507	532	
9	0	0	0	0	451	527	
10	0	0	0	0	463	538	
11	0	0	0	0	492	527	
12	0	0	0	0	517	504	
13	0	0	0	0	505	491	
14	0	0	0	0	500	487	
15	0	0	0	0	508	497	
0	0	0	0	0	492	504	
1	0	0	0	0	511	515	
2	0	0	0	0	507	479	
3	0	0	0	0	471	481	
4	0	0	0	0	452	532	
5	0	0	0	0	516	540	
6	0	0	0	0	604	518	
7	0	0	0	0	540	500	
8	0	0	0	0	469	551	
9	0	0	0	0	482	515	
10	0	0	0	0	471	495	
11	0	0	0	0	478	472	
12	0	0	0	0	548	531	
13	0	0	0	0	591	532	
14	0	0	0	0	572	535	
15	0	0	0	0	483	532	
0	0	0	0	0	424	537	
1	0	0	0	0	463	530	
2	0	0	0	0	517	467	
3	0	0	0	0	523	463	
4	0	0	0	0	556	451	
5	0	0	0	0	525	527	
6	0	0	0	0	500	592	
7	0	0	0	0	497	575	
8	0	0	0	0	500	512	
9	0	0	0	0	494	488	
10	0	0	0	0	488	508	
11	0	0	0	0	475	480	
12	0	0	0	0	469	486	
13	0	0	0	0	449	501	
14	0	0	0	0	436	521	
15	0	0	0	0	457	529	
0	0	0	0	0	500	513	
1	0	0	0	0	591	498	
2	0	0	0	0	623	498	
3	0	0	0	0	627	444	
4	0	0	0	0	520	399	
5	0	0	0	0	403	480	
6	0	0	0	0	361	561	
7	0	0	0	0	401	543	
8	0	0	0	0	451	590	
9	0	0	0	0	580	697	
10	0	0	0	0	693	547	
11	0	0	0	0	695	452	
12	0	0	0	0	620	457	
13	0	0	0	0	507	487	
14	0	0	0	0	478	502	
15	0	0	0	0	439	504	
0	0	0	0	0	460	504	
1	0	0	0	0	472	503	
2	0	0	0	0	476	502	
3	0	0	0	0	476	502	
4	0	0	0	0	464	508	
5	0	0	0	0	508	509	
6	0	0	0	0	526	526	
7	0	0	0	0	511	513	
8	0	0	0	0	494	517	
9	0	0	0	0	422	516	
10	0	0	0	0	424	528	
11	0	0	0	0	432	526	
12	0	0	0	0	465	519	
13	0	0	0	0	533	496	
14	0	0	0	0	620	500	
15	0	0	0	0	606	510	
0	0	0	0	0	560	505	
1	0	0	0	0	543	510	
2	0	0	0	0	467	508	
3	0	0	0	0	477	508	
4	0	0	0	0	474	513	
5	0	0	0	0	483	519	
6	0	0	0	0	494	516	
7	0	0	0	0	495	515	
8	0	0	0	0	524	526	
9	0	0	0	0	520	516	
10	0	0	0	0	525	507	
11	0	0	0	0	521	502	
12	0	0	0	0	521	502	
13	0	0	0	0	497	520	
14	0	0	0	0	478	497	
15	0	0	0	0	460	492	
0	0	0	0	0	445	490	
1	0	0	0	0	432	500	
2	0	0	0	0	456	514	
3	0	0	0	0	510	526	
4	0	0	0	0	577	571	
5	0	0	0	0	590	543	
6	0	0	0	0	553	513	
7	0	0	0	0	554	507	
8	0	0	0	0	532	469	
9	0	0	0	0	496	452	
10	0	0	0	0	521	446	
11	0	0	0	0	493	529	
12	0	0	0	0	462	613	
13	0	0	0	0	478	615	
14	0	0	0	0	554	552	
15	0	0	0	0	532	526	
0	0	0	0	0	500	454	
1	0	0	0	0	500	487	
2	0	0	0	0	497	474	
3	0	0	0	0	488	478	
4	0	0	0	0	518	496	
5	0	0	0	0	507	518	
6	0	0	0	0	403	514	
7	0	0	0	0	417	468	
8	0	0	0	0	425	476	
9	0	0	0	0	480	481	
10	0	0	0	0	649	479	
11	0	0	0	0	697	575	
12	0	0	0	0	611	681	
13	0	0	0	0	477	558	
14	0	0	0	0	440	465	
15	0	0	0	0	438	447	
0	0	0	0	0	448	483	
1	0	0	0	0	505	521	
2	0	0	0	0	554	515	
3	0	0	0	0	556	511	
4	0	0	0	0	571	524	
5	0	0	0	0	517	513	
6	0	0	0	0	463	493	
7	0	0	0	0	433	508	
8	0	0	0	0	499	526	
9	0	0	0	0	455	513	
10	0	0	0	0	463	508	
11	0	0	0	0	497	508	
12	0	0	0	0	515	479	
13	0	0	0	0	542	509	
14	0	0	0	0	583	508	
15	0	0	0	0	596	490	
0	0	0	0	0	545	470	
1	0	0	0	0	435	487	
2	0	0	0	0	437	520	
3	0	0	0	0	427	560	
4	0	0	0	0	411	605	
5	0	0	0	0	446	594	
6	0	0	0	0	451	498	
7	0	0	0	0	475	435	
8	0	0	0	0	498	438	
9	0	0	0	0	497	478	
10	0	0	0	0	479	513	
11	0	0	0	0	539	531	
12	0	0	0	0	611	609	
13	0	0	0	0	609	553	
14	0	0	0	0	641	556	
15	0	0	0	0	568	503	
0	0	0	0	0	511	474	
1	0	0	0	0	553	487	
2	0	0	0	0	492	473	
3	0	0	0	0	446	498	
4	0	0	0	0	432	488	
5	0	0	0	0	489	492	
6	0	0	0	0	493	487	
7	0	0	0	0	523	506	
8	0	0	0	0	555	579	
9	0	0	0	0	444	580	
10	0	0	0	0	476	554	
11	0	0	0	0	600	516	
12	0	0	0	0	545	488	
13	0	0	0	0	392	465	
14	0	0	0	0	342	461	
15	0	0	0	0	382	460	
0	0	0	0	0	466	535	
1	0	0	0	0	623	596	
2	0	0	0	0	633	558	
3	0	0	0	0	516	523	
4	0	0	0	0	514	524	
5	0	0	0	0	607	505	
6	0	0	0	0	715	499	
7	0	0	0	0	588	464	
8	0	0	0	0	492	465	
9	0	0	0	0	404	468	
10	0	0	0	0	415	495	
11	0	0	0	0	444	546	
12	0	0	0	0	460	552	
13	0	0	0	0	513	568	
14	0	0	0	0	492	546	
15	0	0	0	0	484	520	
0	0	0	0	0	479	520	
1	0	0	0	0	464	455	
2	0	0	0	0	410	410	
3	0	0	0	0	446	451	
4	0	0	0	0	559	553	
5	0	0	0	0	636	540	
6	0	0	0	0	601	525	
7	0	0	0	0	484	515	
8	0	0	0	0	375	587	
9	0	0	0	0	385	544	
10	0	0	0	0	537	507	
11	0	0	0	0	555	476	
12	0	0	0	0	491	474	
13	0	0	0	0	441	487	
14	0	0	0	0	468	468	
15	0	0	0	0	566	478	
0	0	0	0	0	584	477	
1	0	0	0	0	584	499	
2	0	0	0	0	511	527	
3	0	0	0	0	453	557	
4	0	0	0	0	405	576	
5	0	0	0	0	533	578	
6	0	0	0	0	571	557	
7	0	0	0	0	612	596	
8	0	0	0	0	577	519	
9	0	0	0	0	477	475	
10	0	0	0	0	506	473	
11	0	0	0	0	503	445	
12	0	0	0	0	408	501	
13	0	0	0	0	397	480	
14	0	0	0	0	474	484	
15	0	0	0	0	548	504	
0	0	0	0	0	705	564	
1	0	0	0	0	668	544	
2	0	0	0	0	539	522	
3	0	0	0	0	517	505	
4	0	0	0	0	453	454	
5	0	0	0	0	344	472	
6	0	0	0	0	443	522	
7	0	0	0	0	487	522	
8	0	0	0	0	415	519	
9	0	0	0	0	455	536	
10	0	0	0	0	535	583	
11	0	0	0	0	600	558	
12	0	0	0	0	600	511	
13	0	0	0	0	522	486	
14	0	0	0	0	481	497	
15	0	0	0	0	464	519	
0	0	0	0	0	446	516	
1	0	0	0	0	411	445	
2	0	0	0	0	464	420	
3	0	0	0	0	420	422	
4	0	0	0	0	378	446	
5	0	0	0	0	652	496	
6	0	0	0	0	756	512	
7	0	0	0	0	732	610	
8	0	0	0	0	527	632	
9	0	0	0	0	448	647	
10	0	0	0	0	459	532	
11	0	0	0	0	454	507	
12	0	0	0	0	464	510	
13	0	0	0	0	462	523	
14	0	0	0	0	419	499	
15	0	0	0	0	392	468	
0	0	0	0	0	395	502	
1	0	0	0	0	403	501	
2	0	0	0	0	470	467	
3	0	0	0	0	598	483	
4	0	0	0	0	752	508	
5	0	0	0	0	644	501	
6	0	0	0	0	536	512	
7	0	0	0	0	444	539	
8	0	0	0	0	413	521	
9	0	0	0	0	428	492	
10	0	0	0	0	467	497	
11	0	0	0	0	552	527	
12	0	0	0	0	624	531	
13	0	0	0	0	639	532	
14	0	0	0	0	575	514	
15	0	0	0	0	574	543	
0	0	0	0	0	539	487	
1	0	0	0	0	455	439	
2	0	0	0	0	429	416	
3	0	0	0	0	470	463	
4	0	0	0	0	425	496	
5	0	0	0	0	457	573	
6	0	0	0	0	477	642	
7	0	0	0	0	492	619	
8	0	0	0	0	487	534	
9	0	0	0	0	478	449	
10	0	0	0	0	444	451	
11	0	0	0	0	452	509	
12	0	0	0	0	495	576	
13	0	0	0	0	480	630	
14	0	0	0	0	527	577	
15	0	0	0	0	472	484	
0	0	0	0	0	467	440	
1	0	0	0	0	572	439	
2	0	0	0	0	630	490	
3	0	0	0	0	732	502	
4	0	0	0	0	562	481	
5	0	0	0	0	453	475	
6	0	0	0	0	448	486	
7	0	0	0	0	440	487	
8	0	0	0	0	467	494	
9	0	0	0	0	477	494	
10	0	0	0	0	515	527	
11	0	0	0	0	448	512	
12	0	0	0	0	453	536	
13	0	0	0	0	511	563	
14	0	0	0	0	376	585	
15	0	0	0	0	312	542	
0	0	0	0	0	451	501	
1	0	0	0	0	632	510	
2	0	0	0	0	702	508	
3	0	0	0	0	850	472	
4	0	0	0	0	793	463	
5	0	0	0	0	657	479	
6	0	0	0	0	624	496	
7	0	0	0	0	537	477	
8	0	0	0	0	323	506	
9	0	0	0	0	260	525	
10	0	0	0	0	280	533	
11	0	0	0	0	337	519	
12	0	0	0	0	465	544	
13	0	0	0	0	548	557	
14	0	0	0	0	617	538	
15	0	0	0	0	502	508	
0	0	0	0	0	359	509	
1	0	0	0	0	364	502	
2	0	0	0	0	395	490	
3	0	0	0	0	419	472	
4	0	0	0	0	518	476	
5	0	0	0	0	650	479	
6	0	0	0	0	686	467	
7	0	0	0	0	683	476	
8	0	0	0	0	553	479	
9	0	0	0	0	445	462	
10	0	0	0	0	374	564	
11	0	0	0	0	440	551	
12	0	0	0	0	504	633	
13	0	0	0	0	577	710	
14	0	0	0	0	629	621	
15	0	0	0	0	587	559	
0	0	0	0	0	566	491	
1	0	0	0	0	428	447	
2	0	0	0	0	377	467	
3	0	0	0	0	371	499	
4	0	0	0	0	397	505	
5	0	0	0	0	412	489	
6	0	0	0	0	380	472	
7	0	0	0	0	442	480	
8	0	0	0	0	625	471	
9	0	0	0	0	701	497	
10	0	0	0	0	708	551	
11	0	0	0	0	618	540	
12	0	0	0	0	601	574	
13	0	0	0	0	524	537	
14	0	0	0	0	481	479	
15	0	0	0	0	482	517	
0	0	0	0	0	500	506	
1	0	0	0	0	479	446	
2	0	0	0	0	535	446	
3	0	0	0	0	500	469	
4	0	0	0	0	386	470	
5	0	0	0	0	368	497	
6	0	0	0	0	409	515	
7	0	0	0	0	469	516	
8	0	0	0	0	489	524	
9	0	0	0	0	523	516	
10	0	0	0	0	539	518	
11	0	0	0	0	579	529	
12	0	0	0	0	597	499	
13	0	0	0	0	503	479	
14	0	0	0	0	557	504	
15	0	0	0	0	554	526	
0	0	0	0	0	517	530	
1	0	0	0	0	492	560	
2	0	0	0	0	540	546	
3	0	0	0	0	468	518	
4	0	0	0	0	434	529	
5	0	0	0	0	464	524	
6	0	0	0	0	455	547	
7	0	0	0	0	449	551	
8	0	0	0	0	556	483	
9	0	0	0	0	604	465	
10	0	0	0	0	531	483	
11	0	0	0	0	478	504	
12	0	0	0	0	473	515	
13	0	0	0	0	471	490	
14	0	0	0	0	455	510	
15	0	0	0	0	491	525	
0	0	0	0	0	515	519	
1	0	0	0	0	543	508	
2	0	0	0	0	559	508	
3	0	0	0	0	552	497	
4	0	0	0	0	524	472	
5	0	0	0	0	473	477	
6	0	0	0	0	452	495	
7	0	0	0	0	473	552	
8	0	0	0	0	517	506	
9	0	0	0	0	569	541	
10	0	0	0	0	512	582	
11	0	0	0	0	470	489	
12	0	0	0	0	427	508	
13	0	0	0	0	440	516	
14	0	0	0	0	524	573	
15	0	0	0	0	618	565	
0	0	0	0	0	581	507	
1	0	0	0	0	443	499	
2	0	0	0	0	417	560	
3	0	0	0	0	487	522	
4	0	0	0	0	544	532	
5	0	0	0	0	560	460	
6	0	0	0	0	566	422	
7	0	0	0	0	528	439	
8	0	0	0	0	481	483	
9	0	0	0	0	510	512	
10	0	0	0	0	519	497	
11	0	0	0	0	502	509	
12	0	0	0	0	527	576	
13	0	0	0	0	481	545	
14	0	0	0	0	419	522	
15	0	0	0	0	447	548	
0	0	0	0	0	480	520	
1	0	0	0	0	442	484	
2	0	0	0	0	408	516	
3	0	0	0	0	400	523	
4	0	0	0	0	466	510	
5	0	0	0	0	663	482	
6	0	0	0	0	775	505	
7	0	0	0	0	684	475	
8	0	0	0	0	559	483	
9	0	0	0	0	446	502	
10	0	0	0	0	445	528	
11	0	0	0	0	482	530	
12	0	0	0	0	503	508	
13	0	0	0	0	527	488	
14	0	0	0	0	462	492	
15	0	0	0	0	397	506	
0	0	0	0	0	457	546	
1	0	0	0	0	510	565	
2	0	0	0	0	508	556	
3	0	0	0	0	497	543	
4	0	0	0	0	439	526	
5	0	0	0	0	385	542	
6	0	0	0	0	425	506	
7	0	0	0	0	544	467	
8	0	0	0	0	625	460	
9	0	0	0	0	722	457	
10	0	0	0	0	627	472	
11	0	0	0	0	369	500	
12	0	0	0	0	371	534	
13	0	0	0	0	469	531	
14	0	0	0	0	591	537	
15	0	0	0	0	619	516	
0	0	0	0	0	536	492	
1	0	0	0	0	487	489	
2	0	0	0	0	445	484	
3	0	0	0	0	440	508	
4	0	0	0	0	468	582	
5	0	0	0	0	503	564	
6	0	0	0	0	496	551	
7	0	0	0	0	502	505	
8	0	0	0	0	520	489	
9	0	0	0	0	516	478	
10	0	0	0	0	477	470	
11	0	0	0	0	502	479	
12	0	0	0	0	491	512	
13	0	0	0	0	412	530	
14	0	0	0	0	527	543	
15	0	0	0	0	707	492	
0	0	0	0	0	647	520	
1	0	0	0	0	576	585	
2	0	0	0	0	537	526	
3	0	0	0	0	480	507	
4	0	0	0	0	471	497	
5	0	0	0	0	458	491	
6	0	0	0	0	448	486	
7	0	0	0	0	455	505	
8	0	0	0	0	479	523	
9	0	0	0	0	502	522	
10	0	0	0	0	492	512	
11	0	0	0	0	501	508	
12	0	0	0	0	519	497	
13	0	0	0	0	507	518	
14	0	0	0	0	475	493	
15	0	0	0	0	462	488	
0	0	0	0	0	470	493	
1	0	0	0	0	492	505	
2	0	0	0	0	508	525	
3	0	0	0	0	489	504	
4	0	0	0	0	513	488	
5	0	0	0	0	521	502	
6	0	0	0	0	547	508	
7	0	0	0	0	520	477	
8	0	0	0	0	483	473	
9	0	0	0	0	473	578	
10	0	0	0	0	491	563	
11	0	0	0	0	535	616	
12	0	0	0	0	633	621	
13	0	0	0	0	639	549	
14	0	0	0	0	581	535	
15	0	0	0	0	526	516	
0	0	0	0	0	455	499	
1	0	0	0	0	427	477	
2	0	0	0	0	361	452	
3	0	0	0	0	369	467	
4	0	0	0	0	393	472	
5	0	0	0	0	465	474	
6	0	0	0	0	507	500	
7	0	0	0	0	460	508	
8	0	0	0	0	480	510	
9	0	0	0	0	551	519	
10	0	0	0	0	621	527	
11	0	0	0	0	652	519	
12	0	0	0	0	724	514	
13	0	0	0	0	557	465	
14	0	0	0	0	456	474	
15	0	0	0	0	465	513	
0	0	0	0	0	435	557	
1	0	0	0	0	435	506	
2	0	0	0	0	508	475	
3	0	0	0	0	512	552	
4	0	0	0	0	509	556	
5	0	0	0	0	523	521	
6	0	0	0	0	500	496	
7	0	0	0	0	493	499	
8	0	0	0	0	486	516	
9	0	0	0	0	440	520	
10	0	0	0	0	392	511	
11	0	0	0	0	461	518	
12	0	0	0	0	493	526	
13	0	0	0	0	611	526	
14	0	0	0	0	713	496	
15	0	0	0	0	673	509	
0	0	0	0	0	550	581	
1	0	0	0	0	420	467	
2	0	0	0	0	284	477	
3	0	0	0	0	365	487	
4	0	0	0	0	482	510	
5	0	0	0	0	518	523	
6	0	0	0	0	528	516	
7	0	0	0	0	566	513	
8	0	0	0	0	500	485	
9	0	0	0	0	449	505	
10	0	0	0	0	487	507	
11	0	0	0	0	532	496	
12	0	0	0	0	612	489	
13	0	0	0	0	579	515	
14	0	0	0	0	551	538	
15	0	0	0	0	508	523	
0	0	0	0	0	484	502	
1	0	0	0	0	467	504	
2	0	0	0	0	448	531	
3	0	0	0	0	467	501	
4	0	0	0	0	487	583	
5	0	0	0	0	522	577	
6	0	0	0	0	535	564	
7	0	0	0	0	510	524	
8	0	0	0	0	489	510	
9	0	0	0	0	485	502	
10	0	0	0	0	483	471	
11	0	0	0	0	524	466	
12	0	0	0	0	493	491	
13	0	0	0	0	556	499	
14	0	0	0	0	556	509	
15	0	0	0	0	540	508	
0	0	0	0	0	476	500	
1	0	0	0	0	441	497	
2	0	0	0	0	438	507	
3	0	0	0	0	514	512	
4	0	0	0	0	563	509	
5	0	0	0	0	570	523	
6	0	0	0	0	496	527	
7	0	0	0	0	503	508	
8	0	0	0	0	514	483	
9	0	0	0	0	495	505	
10	0	0	0	0	477	509	
11	0	0	0	0	477	536	
12	0	0	0	0	451	522	
13	0	0	0	0	438	521	
14	0	0	0	0	481	510	
15	0	0	0	0	572	513	
0	0	0	0	0	639	502	
1	0	0	0	0	593	494	
2	0	0	0	0	499	480	
3	0	0	0	0	487	528	
4	0	0	0	0	448	536	
5	0	0	0	0	411	490	
6	0	0	0	0	440	478	
7	0	0	0	0	527	536	
8	0	0	0	0	498	558	
9	0	0	0	0	578	551	
10	0	0	0	0	576	484	
11	0	0	0	0	491	555	
12	0	0	0	0	454	563	
13	0	0	0	0	463	540	
14	0	0	0	0	459	504	
15	0	0	0	0	455	488	
0	0	0	0	0	485	488	
1	0	0	0	0	564	526	
2	0	0	0	0	543	479	
3	0	0	0	0	565	457	
4	0	0	0	0	574	496	
5	0	0	0	0	501	545	
6	0	0	0	0	473	597	
7	0	0	0	0	521	569	
8	0	0	0	0	588	499	
9	0	0	0	0	468	419	
10	0	0	0	0	454	440	
11	0	0	0	0	432	443	
12	0	0	0	0	437	475	
13	0	0	0	0	495	495	
14	0	0	0	0	621	554	
15	0	0	0	0	584	561	
0	0	0	0	0	521	470	
1	0	0	0	0	455	457	
2	0	0	0	0	411	578	
3	0	0	0	0	437	596	
4	0	0	0	0	456	582	
5	0	0	0	0	539	538	
6	0	0	0	0	550	505	
7	0	0	0	0	593	487	
8	0	0	0	0	650	508	
9	0	0	0	0	605	513	
10	0	0	0	0	511	515	
11	0	0	0	0	483	484	
12	0	0	0	0	459	490	
13	0	0	0	0	473	510	
14	0	0	0	0	487	504	
15	0	0	0	0	512	498	
0	0	0	0	0	513	476	
1	0	0	0	0	492	461	
2	0	0	0	0	485	475	
3	0	0	0	0	466	501	
4	0	0	0	0	456	521	
5	0	0	0	0	493	537	
6	0	0	0	0	507	575	
7	0	0	0	0	476	632	
8	0	0	0	0	485	564	
9	0	0	0	0	497	499	
10	0	0	0	0	512	511	
11	0	0	0	0	508	500	
12	0	0	0	0	510	480	
13	0	0	0	0	500	478	
14	0	0	0	0	479	492	
15	0	0	0	0	416	502	
0	0	0	0	0	427	515	
1	0	0	0	0	513	535	
2	0	0	0	0	562	527	
3	0	0	0	0	600	486	
4	0	0	0	0	670	492	
5	0	0	0	0	604	483	
6	0	0	0	0	513	486	
7	0	0	0	0	464	502	
8	0	0	0	0	480	531	
9	0	0	0	0	406	564	
10	0	0	0	0	375	557	
11	0	0	0	0	419	592	
12	0	0	0	0	501	511	
13	0	0	0	0	601	462	
14	0	0	0	0	608	436	
15	0	0	0	0	560	477	
0	0	0	0	0	533	491	
1	0	0	0	0	442	492	
2	0	0	0	0	422	481	
3	0	0	0	0	410	487	
4	0	0	0	0	493	506	
5	0	0	0	0	599	533	
6	0	0	0	0	654	588	
7	0	0	0	0	577	522	
8	0	0	0	0	466	514	
9	0	0	0	0	423	529	
10	0	0	0	0	491	518	
11	0	0	0	0	560	543	
12	0	0	0	0	566	545	
13	0	0	0	0	511	530	
14	0	0	0	0	486	518	
15	0	0	0	0	448	524	
0	0	0	0	0	467	496	
1	0	0	0	0	444	473	
2	0	0	0	0	519	527	
3	0	0	0	0	573	553	
4	0	0	0	0	592	508	
5	0	0	0	0	534	502	
6	0	0	0	0	390	496	
7	0	0	0	0	210	465	
8	0	0	0	0	303	476	
9	0	0	0	0	495	464	
10	0	0	0	0	607	463	
11	0	0	0	0	676	508	
12	0	0	0	0	684	505	
13	0	0	0	0	524	476	
14	0	0	0	0	547	488	
15	0	0	0	0	619	499	
0	0	0	0	0	588	528	
1	0	0	0	0	567	595	
2	0	0	0	0	481	712	
3	0	0	0	0	456	613	
4	0	0	0	0	448	476	
5	0	0	0	0	467	472	
6	0	0	0	0	462	498	
7	0	0	0	0	515	520	
8	0	0	0	0	578	500	
9	0	0	0	0	561	451	
10	0	0	0	0	451	449	
11	0	0	0	0	441	465	
12	0	0	0	0	403	487	
13	0	0	0	0	395	497	
14	0	0	0	0	459	507	
15	0	0	0	0	513	505	
0	0	0	0	0	539	504	
1	0	0	0	0	549	508	
2	0	0	0	0	580	515	
3	0	0	0	0	573	528	
4	0	0	0	0	494	530	
5	0	0	0	0	465	548	
6	0	0	0	0	479	536	
7	0	0	0	0	453	512	
8	0	0	0	0	466	519	
9	0	0	0	0	515	530	
10	0	0	0	0	514	505	
11	0	0	0	0	463	505	
12	0	0	0	0	496	508	
13	0	0	0	0	497	500	
14	0	0	0	0	496	504	
15	0	0	0	0	524	503	
0	0	0	0	0	554	519	
1	0	0	0	0	562	537	
2	0	0	0	0	500	512	
3	0	0	0	0	511	500	
4	0	0	0	0	510	505	
5	0	0	0	0	507	523	
6	0	0	0	0	563	543	
7	0	0	0	0	524	520	
8	0	0	0	0	492	489	
9	0	0	0	0	474	476	
10	0	0	0	0	437	466	
11	0	0	0	0	460	472	
12	0	0	0	0	528	480	
13	0	0	0	0	570	517	
14	0	0	0	0	507	572	
15	0	0	0	0	445	574	
0	0	0	0	0	437	615	
1	0	0	0	0	450	521	
2	0	0	0	0	545	489	
3	0	0	0	0	643	494	
4	0	0	0	0	582	518	
5	0	0	0	0	524	588	
6	0	0	0	0	544	483	
7	0	0	0	0	554	491	
8	0	0	0	0	504	471	
9	0	0	0	0	529	472	
10	0	0	0	0	540	446	
11	0	0	0	0	540	507	
12	0	0	0	0	486	544	
13	0	0	0	0	407	582	
14	0	0	0	0	409	544	
15	0	0	0	0	438	526	
0	0	0	0	0	476	559	
1	0	0	0	0	490	543	
2	0	0	0	0	485	506	
3	0	0	0	0	487	480	
4	0	0	0	0	516	433	
5	0	0	0	0	540	409	
6	0	0	0	0	594	408	
7	0	0	0	0	552	459	
8	0	0	0	0	492	486	
9	0	0	0	0	472	531	
10	0	0	0	0	508	547	
11	0	0	0	0	513	539	
12	0	0	0	0	484	544	
13	0	0	0	0	474	531	
14	0	0	0	0	515	539	
15	0	0	0	0	517	523	
0	0	0	0	0	496	499	
1	0	0	0	0	521	493	
2	0	0	0	0	479	497	
3	0	0	0	0	416	526	
4	0	0	0	0	453	532	
5	0	0	0	0	488	524	
6	0	0	0	0	518	547	
7	0	0	0	0	500	523	
8	0	0	0	0	513	505	
9	0	0	0	0	519	567	
10	0	0	0	0	530	601	
11	0	0	0	0	508	497	
12	0	0	0	0	529	445	
13	0	0	0	0	504	491	
14	0	0	0	0	494	529	
15	0	0	0	0	563	497	
0	0	0	0	0	551	503	
1	0	0	0	0	450	464	
2	0	0	0	0	488	474	
3	0	0	0	0	534	509	
4	0	0	0	0	514	519	
5	0	0	0	0	497	496	
6	0	0	0	0	452	519	
7	0	0	0	0	471	548	
8	0	0	0	0	563	569	
9	0	0	0	0	521	559	
10	0	0	0	0	542	572	
11	0	0	0	0	632	576	
12	0	0	0	0	526	519	
13	0	0	0	0	510	480	
14	0	0	0	0	485	550	
15	0	0	0	0	466	456	
0	0	0	0	0	479	406	
1	0	0	0	0	483	440	
2	0	0	0	0	470	481	
3	0	0	0	0	495	487	
4	0	0	0	0	488	511	
5	0	0	0	0	490	519	
6	0	0	0	0	559	472	
7	0	0	0	0	541	452	
8	0	0	0	0	473	483	
9	0	0	0	0	484	534	
10	0	0	0	0	498	571	
11	0	0	0	0	506	515	
12	0	0	0	0	536	527	
13	0	0	0	0	463	512	
14	0	0	0	0	437	516	
15	0	0	0	0	499	479	
0	0	0	0	0	469	493	
1	0	0	0	0	459	513	
2	0	0	0	0	527	559	
3	0	0	0	0	504	578	
4	0	0	0	0	550	668	
5	0	0	0	0	611	613	
6	0	0	0	0	553	499	
7	0	0	0	0	591	471	
8	0	0	0	0	613	477	
9	0	0	0	0	520	444	
10	0	0	0	0	432	435	
11	0	0	0	0	423	487	
12	0	0	0	0	454	507	
13	0	0	0	0	487	460	
14	0	0	0	0	509	464	
15	0	0	0	0	527	515	
0	0	0	0	0	440	581	
1	0	0	0	0	435	569	
2	0	0	0	0	473	551	
3	0	0	0	0	471	584	
4	0	0	0	0	524	523	
5	0	0	0	0	541	484	
6	0	0	0	0	476	467	
7	0	0	0	0	450	484	
8	0	0	0	0	448	504	
9	0	0	0	0	523	497	
10	0	0	0	0	636	478	
11	0	0	0	0	643	470	
12	0	0	0	0	516	470	
13	0	0	0	0	487	458	
14	0	0	0	0	488	498	
15	0	0	0	0	487	504	
0	0	0	0	0	472	494	
1	0	0	0	0	480	539	
2	0	0	0	0	481	679	
3	0	0	0	0	517	691	
