# OpenSignals Text File Format. Version 1
# {"98:D3:71:FE:38:C0": {"position": 0, "device": "bitalino_rev", "device name": "98:D3:71:FE:38:C0", "device connection": "BTH98:D3:71:FE:38:C0", "sampling rate": 1000, "resolution": [4, 1, 1, 1, 1, 10, 10], "firmware version": 1282, "comments": "", "keywords": "", "mode": 0, "sync interval": 2, "date": "2026-6-12", "time": "11:40:0.398", "channels": [1, 2], "sensor": ["EMGBITREV", "EMGBITREV"], "label": ["A1", "A2"], "column": ["nSeq", "I1", "I2", "O1", "O2", "A1", "A2"], "special": [{}, {}], "digital IO": [0, 0, 1, 1]}}
# EndOfHeader
0	0	0	0	0	504	513	
1	0	0	0	0	504	512	
2	0	0	0	0	504	513	
3	0	0	0	0	506	515	
4	0	0	0	0	505	512	
5	0	0	0	0	504	511	
6	0	0	0	0	506	512	
7	0	0	0	0	506	511	
8	0	0	0	0	507	514	
9	0	0	0	0	504	511	
10	0	0	0	0	507	510	
11	0	0	0	0	507	512	
12	0	0	0	0	505	513	
13	0	0	0	0	505	512	
14	0	0	0	0	505	512	
15	0	0	0	0	505	511	
0	0	0	0	0	504	513	
1	0	0	0	0	506	511	
2	0	0	0	0	505	510	
3	0	0	0	0	503	512	
4	0	0	0	0	504	510	
5	0	0	0	0	505	511	
6	0	0	0	0	505	512	
7	0	0	0	0	506	512	
8	0	0	0	0	504	509	
9	0	0	0	0	506	514	
10	0	0	0	0	506	513	
11	0	0	0	0	504	512	
12	0	0	0	0	505	513	
13	0	0	0	0	506	511	
14	0	0	0	0	505	513	
15	0	0	0	0	506	513	
0	0	0	0	0	504	511	
1	0	0	0	0	503	511	
2	0	0	0	0	507	513	
3	0	0	0	0	505	514	
4	0	0	0	0	505	511	
5	0	0	0	0	504	512	
6	0	0	0	0	505	511	
7	0	0	0	0	506	512	
8	0	0	0	0	508	511	
9	0	0	0	0	507	511	
10	0	0	0	0	504	511	
11	0	0	0	0	504	514	
12	0	0	0	0	504	512	
13	0	0	0	0	505	510	
14	0	0	0	0	506	510	
15	0	0	0	0	505	511	
0	0	0	0	0	504	511	
1	0	0	0	0	507	513	
2	0	0	0	0	508	512	
3	0	0	0	0	504	513	
4	0	0	0	0	505	511	
5	0	0	0	0	505	512	
6	0	0	0	0	506	512	
7	0	0	0	0	506	512	
8	0	0	0	0	505	511	
9	0	0	0	0	504	513	
10	0	0	0	0	504	511	
11	0	0	0	0	505	510	
12	0	0	0	0	505	511	
13	0	0	0	0	504	511	
14	0	0	0	0	503	513	
15	0	0	0	0	506	513	
0	0	0	0	0	507	512	
1	0	0	0	0	507	512	
2	0	0	0	0	507	512	
3	0	0	0	0	507	511	
4	0	0	0	0	505	513	
5	0	0	0	0	504	511	
6	0	0	0	0	504	511	
7	0	0	0	0	507	512	
8	0	0	0	0	504	511	
9	0	0	0	0	504	513	
10	0	0	0	0	504	512	
11	0	0	0	0	505	512	
12	0	0	0	0	504	512	
13	0	0	0	0	504	514	
14	0	0	0	0	506	512	
15	0	0	0	0	506	512	
0	0	0	0	0	507	512	
1	0	0	0	0	504	512	
2	0	0	0	0	505	512	
3	0	0	0	0	507	512	
4	0	0	0	0	505	512	
5	0	0	0	0	507	513	
6	0	0	0	0	505	512	
7	0	0	0	0	505	510	
8	0	0	0	0	504	510	
9	0	0	0	0	503	513	
10	0	0	0	0	505	512	
11	0	0	0	0	507	515	
12	0	0	0	0	507	513	
13	0	0	0	0	507	511	
14	0	0	0	0	507	511	
15	0	0	0	0	507	513	
0	0	0	0	0	507	512	
1	0	0	0	0	504	513	
2	0	0	0	0	505	510	
3	0	0	0	0	505	513	
4	0	0	0	0	504	512	
5	0	0	0	0	504	512	
6	0	0	0	0	506	511	
7	0	0	0	0	505	508	
8	0	0	0	0	504	512	
9	0	0	0	0	504	510	
10	0	0	0	0	505	512	
11	0	0	0	0	506	510	
12	0	0	0	0	508	511	
13	0	0	0	0	504	512	
14	0	0	0	0	506	511	
15	0	0	0	0	506	512	
0	0	0	0	0	505	512	
1	0	0	0	0	505	512	
2	0	0	0	0	507	513	
3	0	0	0	0	505	511	
4	0	0	0	0	505	511	
5	0	0	0	0	505	512	
6	0	0	0	0	506	513	
7	0	0	0	0	505	512	
8	0	0	0	0	503	512	
9	0	0	0	0	505	512	
10	0	0	0	0	505	511	
11	0	0	0	0	506	512	
12	0	0	0	0	504	512	
13	0	0	0	0	506	512	
14	0	0	0	0	505	511	
15	0	0	0	0	506	511	
0	0	0	0	0	507	513	
1	0	0	0	0	504	513	
2	0	0	0	0	507	512	
3	0	0	0	0	506	512	
4	0	0	0	0	507	511	
5	0	0	0	0	505	510	
6	0	0	0	0	505	511	
7	0	0	0	0	505	511	
8	0	0	0	0	505	512	
9	0	0	0	0	505	513	
10	0	0	0	0	505	515	
11	0	0	0	0	504	512	
12	0	0	0	0	504	512	
13	0	0	0	0	504	513	
14	0	0	0	0	505	511	
15	0	0	0	0	504	511	
0	0	0	0	0	506	512	
1	0	0	0	0	505	512	
2	0	0	0	0	504	512	
3	0	0	0	0	505	511	
4	0	0	0	0	506	512	
5	0	0	0	0	506	515	
6	0	0	0	0	504	512	
7	0	0	0	0	506	511	
8	0	0	0	0	506	512	
9	0	0	0	0	505	509	
10	0	0	0	0	504	512	
11	0	0	0	0	504	511	
12	0	0	0	0	505	512	
13	0	0	0	0	505	513	
14	0	0	0	0	504	512	
15	0	0	0	0	507	512	
0	0	0	0	0	505	512	
1	0	0	0	0	506	510	
2	0	0	0	0	504	511	
3	0	0	0	0	505	514	
4	0	0	0	0	507	511	
5	0	0	0	0	507	512	
6	0	0	0	0	505	512	
7	0	0	0	0	504	512	
8	0	0	0	0	507	514	
9	0	0	0	0	505	511	
10	0	0	0	0	504	511	
11	0	0	0	0	506	513	
12	0	0	0	0	505	512	
13	0	0	0	0	504	511	
14	0	0	0	0	504	511	
15	0	0	0	0	507	511	
0	0	0	0	0	507	512	
1	0	0	0	0	506	513	
2	0	0	0	0	505	511	
3	0	0	0	0	505	514	
4	0	0	0	0	505	512	
5	0	0	0	0	505	510	
6	0	0	0	0	507	512	
7	0	0	0	0	505	512	
8	0	0	0	0	504	513	
9	0	0	0	0	505	512	
10	0	0	0	0	505	513	
11	0	0	0	0	505	512	
12	0	0	0	0	504	510	
13	0	0	0	0	505	512	
14	0	0	0	0	508	512	
15	0	0	0	0	529	511	
0	0	0	0	0	521	510	
1	0	0	0	0	516	511	
2	0	0	0	0	510	513	
3	0	0	0	0	506	513	
4	0	0	0	0	502	511	
5	0	0	0	0	504	511	
6	0	0	0	0	502	510	
7	0	0	0	0	500	510	
8	0	0	0	0	503	511	
9	0	0	0	0	502	511	
10	0	0	0	0	503	512	
11	0	0	0	0	502	513	
12	0	0	0	0	502	512	
13	0	0	0	0	500	514	
14	0	0	0	0	502	513	
15	0	0	0	0	501	511	
0	0	0	0	0	504	512	
1	0	0	0	0	503	512	
2	0	0	0	0	503	511	
3	0	0	0	0	502	510	
4	0	0	0	0	503	512	
5	0	0	0	0	504	511	
6	0	0	0	0	505	512	
7	0	0	0	0	506	512	
8	0	0	0	0	504	511	
9	0	0	0	0	505	512	
10	0	0	0	0	505	511	
11	0	0	0	0	504	510	
12	0	0	0	0	505	511	
13	0	0	0	0	505	512	
14	0	0	0	0	504	513	
15	0	0	0	0	505	512	
0	0	0	0	0	504	513	
1	0	0	0	0	506	512	
2	0	0	0	0	506	513	
3	0	0	0	0	505	511	
4	0	0	0	0	504	511	
5	0	0	0	0	504	512	
6	0	0	0	0	505	513	
7	0	0	0	0	507	514	
8	0	0	0	0	506	513	
9	0	0	0	0	505	512	
10	0	0	0	0	504	513	
11	0	0	0	0	505	512	
12	0	0	0	0	505	510	
13	0	0	0	0	504	510	
14	0	0	0	0	507	511	
15	0	0	0	0	506	512	
0	0	0	0	0	506	511	
1	0	0	0	0	505	510	
2	0	0	0	0	504	512	
3	0	0	0	0	503	510	
4	0	0	0	0	505	510	
5	0	0	0	0	506	512	
6	0	0	0	0	507	511	
7	0	0	0	0	505	511	
8	0	0	0	0	504	513	
9	0	0	0	0	504	513	
10	0	0	0	0	505	512	
11	0	0	0	0	507	512	
12	0	0	0	0	507	512	
13	0	0	0	0	507	512	
14	0	0	0	0	505	512	
15	0	0	0	0	507	511	
0	0	0	0	0	505	511	
1	0	0	0	0	505	514	
2	0	0	0	0	504	511	
3	0	0	0	0	504	512	
4	0	0	0	0	505	512	
5	0	0	0	0	504	513	
6	0	0	0	0	505	512	
7	0	0	0	0	508	512	
8	0	0	0	0	506	511	
9	0	0	0	0	504	513	
10	0	0	0	0	504	512	
11	0	0	0	0	505	512	
12	0	0	0	0	506	512	
13	0	0	0	0	504	513	
14	0	0	0	0	505	512	
15	0	0	0	0	505	512	
0	0	0	0	0	506	512	
1	0	0	0	0	505	511	
2	0	0	0	0	505	511	
3	0	0	0	0	504	512	
4	0	0	0	0	507	513	
5	0	0	0	0	506	512	
6	0	0	0	0	508	509	
7	0	0	0	0	504	513	
8	0	0	0	0	505	512	
9	0	0	0	0	504	512	
10	0	0	0	0	502	511	
11	0	0	0	0	506	512	
12	0	0	0	0	504	512	
13	0	0	0	0	505	511	
14	0	0	0	0	507	513	
15	0	0	0	0	506	513	
0	0	0	0	0	506	512	
1	0	0	0	0	505	511	
2	0	0	0	0	507	512	
3	0	0	0	0	505	511	
4	0	0	0	0	505	512	
5	0	0	0	0	505	513	
6	0	0	0	0	507	511	
7	0	0	0	0	506	512	
8	0	0	0	0	504	511	
9	0	0	0	0	506	511	
10	0	0	0	0	504	513	
11	0	0	0	0	504	512	
12	0	0	0	0	505	513	
13	0	0	0	0	504	512	
14	0	0	0	0	506	511	
15	0	0	0	0	504	513	
0	0	0	0	0	505	513	
1	0	0	0	0	507	508	
2	0	0	0	0	504	512	
3	0	0	0	0	506	511	
4	0	0	0	0	504	511	
5	0	0	0	0	504	512	
6	0	0	0	0	505	514	
7	0	0	0	0	505	513	
8	0	0	0	0	508	511	
9	0	0	0	0	504	511	
10	0	0	0	0	505	510	
11	0	0	0	0	506	511	
12	0	0	0	0	507	513	
13	0	0	0	0	504	511	
14	0	0	0	0	504	511	
15	0	0	0	0	504	511	
0	0	0	0	0	506	513	
1	0	0	0	0	505	511	
2	0	0	0	0	506	511	
3	0	0	0	0	506	511	
4	0	0	0	0	505	512	
5	0	0	0	0	504	512	
6	0	0	0	0	504	512	
7	0	0	0	0	505	511	
8	0	0	0	0	505	511	
9	0	0	0	0	506	511	
10	0	0	0	0	507	510	
11	0	0	0	0	506	513	
12	0	0	0	0	505	512	
13	0	0	0	0	507	512	
14	0	0	0	0	504	513	
15	0	0	0	0	504	513	
0	0	0	0	0	505	510	
1	0	0	0	0	504	511	
2	0	0	0	0	507	512	
3	0	0	0	0	504	514	
4	0	0	0	0	504	512	
5	0	0	0	0	506	512	
6	0	0	0	0	504	512	
7	0	0	0	0	507	513	
8	0	0	0	0	503	512	
9	0	0	0	0	502	512	
10	0	0	0	0	505	512	
11	0	0	0	0	506	513	
12	0	0	0	0	504	513	
13	0	0	0	0	507	512	
14	0	0	0	0	506	512	
15	0	0	0	0	504	511	
0	0	0	0	0	505	511	
1	0	0	0	0	506	511	
2	0	0	0	0	505	512	
3	0	0	0	0	504	511	
4	0	0	0	0	507	511	
5	0	0	0	0	505	511	
6	0	0	0	0	505	512	
7	0	0	0	0	504	512	
8	0	0	0	0	507	513	
9	0	0	0	0	503	511	
10	0	0	0	0	504	511	
11	0	0	0	0	505	514	
12	0	0	0	0	507	514	
13	0	0	0	0	504	513	
14	0	0	0	0	504	510	
15	0	0	0	0	505	512	
0	0	0	0	0	505	511	
1	0	0	0	0	504	512	
2	0	0	0	0	504	509	
3	0	0	0	0	503	510	
4	0	0	0	0	505	512	
5	0	0	0	0	505	512	
6	0	0	0	0	507	513	
7	0	0	0	0	507	513	
8	0	0	0	0	506	513	
9	0	0	0	0	506	512	
10	0	0	0	0	505	513	
11	0	0	0	0	506	512	
12	0	0	0	0	507	509	
13	0	0	0	0	507	512	
14	0	0	0	0	505	512	
15	0	0	0	0	507	512	
0	0	0	0	0	507	508	
1	0	0	0	0	506	513	
2	0	0	0	0	506	512	
3	0	0	0	0	506	512	
4	0	0	0	0	505	512	
5	0	0	0	0	504	513	
6	0	0	0	0	505	511	
7	0	0	0	0	504	511	
8	0	0	0	0	505	510	
9	0	0	0	0	503	511	
10	0	0	0	0	504	513	
11	0	0	0	0	507	512	
12	0	0	0	0	507	510	
13	0	0	0	0	507	512	
14	0	0	0	0	504	512	
15	0	0	0	0	507	512	
0	0	0	0	0	507	512	
1	0	0	0	0	504	512	
2	0	0	0	0	506	511	
3	0	0	0	0	504	511	
4	0	0	0	0	505	511	
5	0	0	0	0	505	511	
6	0	0	0	0	504	511	
7	0	0	0	0	505	513	
8	0	0	0	0	504	511	
9	0	0	0	0	505	511	
10	0	0	0	0	504	514	
11	0	0	0	0	506	512	
12	0	0	0	0	505	513	
13	0	0	0	0	507	511	
14	0	0	0	0	505	515	
15	0	0	0	0	506	512	
0	0	0	0	0	504	513	
1	0	0	0	0	504	510	
2	0	0	0	0	504	512	
3	0	0	0	0	504	510	
4	0	0	0	0	505	513	
5	0	0	0	0	505	513	
6	0	0	0	0	504	512	
7	0	0	0	0	504	512	
8	0	0	0	0	504	512	
9	0	0	0	0	507	511	
10	0	0	0	0	504	511	
11	0	0	0	0	505	509	
12	0	0	0	0	506	511	
13	0	0	0	0	505	512	
14	0	0	0	0	504	514	
15	0	0	0	0	506	511	
0	0	0	0	0	506	512	
1	0	0	0	0	506	511	
2	0	0	0	0	507	512	
3	0	0	0	0	504	510	
4	0	0	0	0	505	511	
5	0	0	0	0	504	510	
6	0	0	0	0	504	510	
7	0	0	0	0	504	512	
8	0	0	0	0	505	512	
9	0	0	0	0	504	512	
10	0	0	0	0	505	513	
11	0	0	0	0	503	512	
12	0	0	0	0	506	511	
13	0	0	0	0	506	512	
14	0	0	0	0	504	512	
15	0	0	0	0	504	511	
0	0	0	0	0	507	513	
1	0	0	0	0	505	512	
2	0	0	0	0	507	512	
3	0	0	0	0	504	512	
4	0	0	0	0	505	511	
5	0	0	0	0	505	512	
6	0	0	0	0	507	513	
7	0	0	0	0	505	511	
8	0	0	0	0	505	511	
9	0	0	0	0	506	513	
10	0	0	0	0	506	513	
11	0	0	0	0	505	513	
12	0	0	0	0	505	514	
13	0	0	0	0	506	512	
14	0	0	0	0	506	511	
15	0	0	0	0	504	510	
0	0	0	0	0	507	510	
1	0	0	0	0	505	511	
2	0	0	0	0	504	512	
3	0	0	0	0	505	512	
4	0	0	0	0	507	510	
5	0	0	0	0	505	511	
6	0	0	0	0	506	512	
7	0	0	0	0	505	512	
8	0	0	0	0	505	513	
9	0	0	0	0	504	513	
10	0	0	0	0	504	514	
11	0	0	0	0	505	512	
12	0	0	0	0	504	511	
13	0	0	0	0	507	511	
14	0	0	0	0	505	513	
15	0	0	0	0	504	511	
0	0	0	0	0	506	512	
1	0	0	0	0	504	511	
2	0	0	0	0	505	513	
3	0	0	0	0	505	512	
4	0	0	0	0	506	512	
5	0	0	0	0	506	512	
6	0	0	0	0	506	510	
7	0	0	0	0	504	511	
8	0	0	0	0	507	510	
9	0	0	0	0	505	513	
10	0	0	0	0	505	512	
11	0	0	0	0	506	511	
12	0	0	0	0	504	512	
13	0	0	0	0	505	513	
14	0	0	0	0	504	512	
15	0	0	0	0	505	511	
0	0	0	0	0	505	511	
1	0	0	0	0	505	511	
2	0	0	0	0	507	511	
3	0	0	0	0	506	512	
4	0	0	0	0	505	511	
5	0	0	0	0	505	512	
6	0	0	0	0	505	510	
7	0	0	0	0	505	511	
8	0	0	0	0	504	513	
9	0	0	0	0	506	513	
10	0	0	0	0	506	512	
11	0	0	0	0	507	512	
12	0	0	0	0	504	512	
13	0	0	0	0	505	512	
14	0	0	0	0	505	511	
15	0	0	0	0	507	512	
0	0	0	0	0	507	510	
1	0	0	0	0	505	511	
2	0	0	0	0	505	513	
3	0	0	0	0	507	511	
4	0	0	0	0	505	512	
5	0	0	0	0	504	511	
6	0	0	0	0	505	513	
7	0	0	0	0	504	512	
8	0	0	0	0	504	509	
9	0	0	0	0	505	512	
10	0	0	0	0	507	513	
11	0	0	0	0	504	513	
12	0	0	0	0	505	513	
13	0	0	0	0	507	511	
14	0	0	0	0	507	512	
15	0	0	0	0	507	512	
0	0	0	0	0	505	513	
1	0	0	0	0	505	512	
2	0	0	0	0	505	512	
3	0	0	0	0	506	512	
4	0	0	0	0	506	510	
5	0	0	0	0	505	511	
6	0	0	0	0	504	511	
7	0	0	0	0	507	512	
8	0	0	0	0	505	512	
9	0	0	0	0	507	514	
10	0	0	0	0	505	513	
11	0	0	0	0	504	512	
12	0	0	0	0	505	511	
13	0	0	0	0	505	514	
14	0	0	0	0	505	510	
15	0	0	0	0	505	511	
0	0	0	0	0	506	512	
1	0	0	0	0	505	513	
2	0	0	0	0	504	511	
3	0	0	0	0	504	510	
4	0	0	0	0	504	511	
5	0	0	0	0	506	512	
6	0	0	0	0	504	512	
7	0	0	0	0	504	512	
8	0	0	0	0	506	511	
9	0	0	0	0	505	511	
10	0	0	0	0	504	513	
11	0	0	0	0	506	515	
12	0	0	0	0	506	512	
13	0	0	0	0	506	511	
14	0	0	0	0	506	511	
15	0	0	0	0	505	512	
0	0	0	0	0	505	511	
1	0	0	0	0	505	511	
2	0	0	0	0	504	511	
3	0	0	0	0	503	512	
4	0	0	0	0	505	513	
5	0	0	0	0	506	511	
6	0	0	0	0	507	513	
7	0	0	0	0	505	513	
8	0	0	0	0	506	512	
9	0	0	0	0	505	512	
10	0	0	0	0	504	513	
11	0	0	0	0	504	512	
12	0	0	0	0	505	509	
13	0	0	0	0	505	511	
14	0	0	0	0	507	514	
15	0	0	0	0	505	511	
0	0	0	0	0	506	513	
1	0	0	0	0	504	511	
2	0	0	0	0	507	510	
3	0	0	0	0	506	512	
4	0	0	0	0	505	513	
5	0	0	0	0	504	511	
6	0	0	0	0	504	510	
7	0	0	0	0	505	510	
8	0	0	0	0	505	512	
9	0	0	0	0	506	516	
10	0	0	0	0	505	512	
11	0	0	0	0	506	513	
12	0	0	0	0	505	513	
13	0	0	0	0	505	510	
14	0	0	0	0	507	512	
15	0	0	0	0	506	511	
0	0	0	0	0	505	511	
1	0	0	0	0	505	511	
2	0	0	0	0	504	511	
3	0	0	0	0	503	513	
4	0	0	0	0	504	512	
5	0	0	0	0	505	512	
6	0	0	0	0	505	511	
7	0	0	0	0	507	511	
8	0	0	0	0	506	513	
9	0	0	0	0	503	511	
10	0	0	0	0	504	511	
11	0	0	0	0	505	512	
12	0	0	0	0	504	510	
13	0	0	0	0	506	511	
14	0	0	0	0	506	512	
15	0	0	0	0	505	513	
0	0	0	0	0	507	513	
1	0	0	0	0	504	513	
2	0	0	0	0	505	514	
3	0	0	0	0	504	511	
4	0	0	0	0	504	511	
5	0	0	0	0	504	509	
6	0	0	0	0	505	513	
7	0	0	0	0	505	512	
8	0	0	0	0	506	511	
9	0	0	0	0	506	511	
10	0	0	0	0	507	511	
11	0	0	0	0	505	510	
12	0	0	0	0	504	511	
13	0	0	0	0	504	513	
14	0	0	0	0	505	515	
15	0	0	0	0	504	511	
0	0	0	0	0	507	513	
1	0	0	0	0	505	509	
2	0	0	0	0	504	510	
3	0	0	0	0	507	511	
4	0	0	0	0	505	513	
5	0	0	0	0	508	511	
6	0	0	0	0	505	510	
7	0	0	0	0	505	511	
8	0	0	0	0	504	509	
9	0	0	0	0	504	511	
10	0	0	0	0	505	512	
11	0	0	0	0	506	510	
12	0	0	0	0	507	511	
13	0	0	0	0	504	511	
14	0	0	0	0	506	512	
15	0	0	0	0	505	514	
0	0	0	0	0	505	513	
1	0	0	0	0	506	512	
2	0	0	0	0	505	513	
3	0	0	0	0	504	511	
4	0	0	0	0	505	512	
5	0	0	0	0	506	512	
6	0	0	0	0	505	511	
7	0	0	0	0	505	512	
8	0	0	0	0	505	513	
9	0	0	0	0	505	512	
10	0	0	0	0	504	511	
11	0	0	0	0	507	514	
12	0	0	0	0	507	511	
13	0	0	0	0	505	512	
14	0	0	0	0	505	512	
15	0	0	0	0	507	512	
0	0	0	0	0	506	511	
1	0	0	0	0	506	512	
2	0	0	0	0	507	510	
3	0	0	0	0	505	511	
4	0	0	0	0	505	513	
5	0	0	0	0	507	512	
6	0	0	0	0	505	511	
7	0	0	0	0	504	512	
8	0	0	0	0	507	512	
9	0	0	0	0	505	511	
10	0	0	0	0	505	511	
11	0	0	0	0	503	512	
12	0	0	0	0	504	511	
13	0	0	0	0	504	511	
14	0	0	0	0	504	511	
15	0	0	0	0	505	512	
0	0	0	0	0	506	513	
1	0	0	0	0	506	511	
2	0	0	0	0	507	511	
3	0	0	0	0	505	510	
4	0	0	0	0	504	511	
5	0	0	0	0	504	513	
6	0	0	0	0	506	513	
7	0	0	0	0	505	509	
8	0	0	0	0	506	510	
9	0	0	0	0	502	508	
10	0	0	0	0	506	511	
11	0	0	0	0	507	511	
12	0	0	0	0	505	511	
13	0	0	0	0	504	513	
14	0	0	0	0	504	512	
15	0	0	0	0	506	511	
0	0	0	0	0	507	511	
1	0	0	0	0	505	513	
2	0	0	0	0	505	514	
3	0	0	0	0	504	514	
4	0	0	0	0	506	513	
5	0	0	0	0	506	512	
6	0	0	0	0	506	512	
7	0	0	0	0	505	510	
8	0	0	0	0	506	513	
9	0	0	0	0	506	511	
10	0	0	0	0	507	510	
11	0	0	0	0	504	509	
12	0	0	0	0	504	511	
13	0	0	0	0	504	512	
14	0	0	0	0	506	513	
15	0	0	0	0	507	511	
0	0	0	0	0	506	511	
1	0	0	0	0	505	509	
2	0	0	0	0	506	512	
3	0	0	0	0	504	512	
4	0	0	0	0	505	513	
5	0	0	0	0	505	512	
6	0	0	0	0	504	511	
7	0	0	0	0	504	513	
8	0	0	0	0	503	513	
9	0	0	0	0	504	513	
10	0	0	0	0	507	511	
11	0	0	0	0	504	513	
12	0	0	0	0	506	510	
13	0	0	0	0	505	513	
14	0	0	0	0	507	512	
15	0	0	0	0	505	512	
0	0	0	0	0	506	512	
1	0	0	0	0	505	511	
2	0	0	0	0	504	513	
3	0	0	0	0	505	511	
4	0	0	0	0	506	511	
5	0	0	0	0	504	512	
6	0	0	0	0	505	512	
7	0	0	0	0	506	512	
8	0	0	0	0	505	511	
9	0	0	0	0	504	511	
10	0	0	0	0	504	512	
11	0	0	0	0	505	513	
12	0	0	0	0	505	511	
13	0	0	0	0	505	512	
14	0	0	0	0	505	511	
15	0	0	0	0	505	510	
0	0	0	0	0	505	510	
1	0	0	0	0	508	511	
2	0	0	0	0	506	511	
3	0	0	0	0	505	513	
4	0	0	0	0	507	511	
5	0	0	0	0	505	513	
6	0	0	0	0	503	513	
7	0	0	0	0	507	513	
8	0	0	0	0	507	515	
9	0	0	0	0	504	512	
10	0	0	0	0	505	510	
11	0	0	0	0	506	510	
12	0	0	0	0	504	511	
13	0	0	0	0	505	513	
14	0	0	0	0	504	513	
15	0	0	0	0	508	510	
0	0	0	0	0	508	512	
1	0	0	0	0	506	511	
2	0	0	0	0	504	512	
3	0	0	0	0	508	511	
4	0	0	0	0	506	512	
5	0	0	0	0	504	512	
6	0	0	0	0	505	510	
7	0	0	0	0	504	512	
8	0	0	0	0	506	512	
9	0	0	0	0	506	511	
10	0	0	0	0	504	515	
11	0	0	0	0	505	512	
12	0	0	0	0	507	513	
13	0	0	0	0	505	512	
14	0	0	0	0	506	512	
15	0	0	0	0	506	511	
0	0	0	0	0	507	513	
1	0	0	0	0	504	511	
2	0	0	0	0	505	511	
3	0	0	0	0	504	510	
4	0	0	0	0	504	512	
5	0	0	0	0	504	512	
6	0	0	0	0	505	512	
7	0	0	0	0	506	513	
8	0	0	0	0	504	511	
9	0	0	0	0	504	511	
10	0	0	0	0	507	513	
11	0	0	0	0	506	510	
12	0	0	0	0	505	509	
13	0	0	0	0	507	511	
14	0	0	0	0	505	514	
15	0	0	0	0	504	515	
0	0	0	0	0	505	512	
1	0	0	0	0	504	513	
2	0	0	0	0	506	512	
3	0	0	0	0	506	511	
4	0	0	0	0	507	513	
5	0	0	0	0	507	511	
6	0	0	0	0	506	511	
7	0	0	0	0	507	513	
8	0	0	0	0	505	512	
9	0	0	0	0	506	511	
10	0	0	0	0	505	511	
11	0	0	0	0	504	511	
12	0	0	0	0	504	511	
13	0	0	0	0	506	513	
14	0	0	0	0	504	511	
15	0	0	0	0	505	509	
0	0	0	0	0	505	511	
1	0	0	0	0	504	514	
2	0	0	0	0	505	512	
3	0	0	0	0	505	512	
4	0	0	0	0	504	513	
5	0	0	0	0	505	511	
6	0	0	0	0	505	512	
7	0	0	0	0	506	511	
8	0	0	0	0	507	512	
9	0	0	0	0	505	511	
10	0	0	0	0	505	511	
11	0	0	0	0	506	513	
12	0	0	0	0	504	512	
13	0	0	0	0	505	512	
14	0	0	0	0	507	513	
15	0	0	0	0	505	511	
0	0	0	0	0	505	513	
1	0	0	0	0	504	511	
2	0	0	0	0	504	512	
3	0	0	0	0	505	512	
4	0	0	0	0	507	512	
5	0	0	0	0	506	512	
6	0	0	0	0	507	511	
7	0	0	0	0	505	512	
8	0	0	0	0	506	513	
9	0	0	0	0	504	512	
10	0	0	0	0	505	511	
11	0	0	0	0	504	512	
12	0	0	0	0	504	513	
13	0	0	0	0	505	513	
14	0	0	0	0	506	512	
15	0	0	0	0	506	512	
0	0	0	0	0	507	512	
1	0	0	0	0	507	510	
2	0	0	0	0	504	512	
3	0	0	0	0	504	512	
4	0	0	0	0	505	512	
5	0	0	0	0	505	511	
6	0	0	0	0	507	510	
7	0	0	0	0	505	511	
8	0	0	0	0	505	512	
9	0	0	0	0	504	511	
10	0	0	0	0	507	512	
11	0	0	0	0	506	510	
12	0	0	0	0	504	511	
13	0	0	0	0	505	514	
14	0	0	0	0	506	512	
15	0	0	0	0	505	513	
0	0	0	0	0	505	510	
1	0	0	0	0	507	513	
2	0	0	0	0	506	514	
3	0	0	0	0	505	512	
4	0	0	0	0	505	512	
5	0	0	0	0	504	511	
6	0	0	0	0	504	510	
7	0	0	0	0	505	510	
8	0	0	0	0	504	512	
9	0	0	0	0	505	513	
10	0	0	0	0	504	512	
11	0	0	0	0	507	513	
12	0	0	0	0	508	512	
13	0	0	0	0	505	512	
14	0	0	0	0	505	513	
15	0	0	0	0	504	513	
0	0	0	0	0	505	513	
1	0	0	0	0	505	511	
2	0	0	0	0	507	511	
3	0	0	0	0	505	512	
4	0	0	0	0	506	513	
5	0	0	0	0	505	512	
6	0	0	0	0	505	510	
7	0	0	0	0	504	511	
8	0	0	0	0	505	513	
9	0	0	0	0	504	511	
10	0	0	0	0	508	509	
11	0	0	0	0	508	508	
12	0	0	0	0	504	514	
13	0	0	0	0	504	511	
14	0	0	0	0	506	509	
15	0	0	0	0	503	511	
0	0	0	0	0	505	512	
1	0	0	0	0	505	514	
2	0	0	0	0	505	512	
3	0	0	0	0	505	512	
4	0	0	0	0	504	511	
5	0	0	0	0	505	511	
6	0	0	0	0	505	512	
7	0	0	0	0	504	512	
8	0	0	0	0	507	511	
9	0	0	0	0	505	511	
10	0	0	0	0	505	512	
11	0	0	0	0	508	510	
12	0	0	0	0	506	511	
13	0	0	0	0	507	512	
14	0	0	0	0	507	512	
15	0	0	0	0	507	512	
0	0	0	0	0	507	510	
1	0	0	0	0	505	513	
2	0	0	0	0	504	513	
3	0	0	0	0	505	514	
4	0	0	0	0	504	512	
5	0	0	0	0	505	513	
6	0	0	0	0	506	512	
7	0	0	0	0	506	513	
8	0	0	0	0	505	512	
9	0	0	0	0	505	512	
10	0	0	0	0	505	512	
11	0	0	0	0	506	509	
12	0	0	0	0	506	511	
13	0	0	0	0	506	511	
14	0	0	0	0	505	512	
15	0	0	0	0	504	510	
0	0	0	0	0	504	511	
1	0	0	0	0	505	512	
2	0	0	0	0	505	513	
3	0	0	0	0	505	514	
4	0	0	0	0	505	512	
5	0	0	0	0	504	512	
6	0	0	0	0	505	511	
7	0	0	0	0	507	511	
8	0	0	0	0	505	510	
9	0	0	0	0	506	512	
10	0	0	0	0	505	514	
11	0	0	0	0	507	511	
12	0	0	0	0	504	511	
13	0	0	0	0	505	514	
14	0	0	0	0	505	512	
15	0	0	0	0	504	511	
0	0	0	0	0	506	511	
1	0	0	0	0	506	512	
2	0	0	0	0	506	513	
3	0	0	0	0	507	509	
4	0	0	0	0	506	513	
5	0	0	0	0	505	512	
6	0	0	0	0	505	513	
7	0	0	0	0	504	513	
8	0	0	0	0	505	514	
9	0	0	0	0	504	511	
10	0	0	0	0	504	511	
11	0	0	0	0	507	512	
12	0	0	0	0	504	513	
13	0	0	0	0	504	511	
14	0	0	0	0	505	513	
15	0	0	0	0	508	511	
0	0	0	0	0	505	512	
1	0	0	0	0	507	512	
2	0	0	0	0	506	509	
3	0	0	0	0	506	511	
4	0	0	0	0	504	510	
5	0	0	0	0	505	512	
6	0	0	0	0	505	512	
7	0	0	0	0	506	511	
8	0	0	0	0	504	513	
9	0	0	0	0	506	511	
10	0	0	0	0	505	515	
11	0	0	0	0	505	512	
12	0	0	0	0	504	511	
13	0	0	0	0	504	512	
14	0	0	0	0	505	512	
15	0	0	0	0	506	511	
0	0	0	0	0	505	512	
1	0	0	0	0	504	511	
2	0	0	0	0	505	512	
3	0	0	0	0	503	511	
4	0	0	0	0	508	511	
5	0	0	0	0	506	511	
6	0	0	0	0	505	513	
7	0	0	0	0	504	510	
8	0	0	0	0	505	513	
9	0	0	0	0	504	511	
10	0	0	0	0	507	512	
11	0	0	0	0	505	512	
12	0	0	0	0	505	512	
13	0	0	0	0	506	510	
14	0	0	0	0	505	512	
15	0	0	0	0	505	511	
0	0	0	0	0	503	512	
1	0	0	0	0	505	511	
2	0	0	0	0	505	512	
3	0	0	0	0	505	510	
4	0	0	0	0	507	513	
5	0	0	0	0	507	513	
6	0	0	0	0	504	511	
7	0	0	0	0	505	512	
8	0	0	0	0	505	511	
9	0	0	0	0	506	512	
10	0	0	0	0	507	513	
11	0	0	0	0	508	512	
12	0	0	0	0	505	512	
13	0	0	0	0	505	511	
14	0	0	0	0	504	512	
15	0	0	0	0	505	514	
0	0	0	0	0	504	513	
1	0	0	0	0	504	513	
2	0	0	0	0	507	512	
3	0	0	0	0	504	511	
4	0	0	0	0	507	512	
5	0	0	0	0	505	511	
6	0	0	0	0	506	511	
7	0	0	0	0	504	512	
8	0	0	0	0	508	510	
9	0	0	0	0	506	512	
10	0	0	0	0	505	515	
11	0	0	0	0	506	511	
12	0	0	0	0	504	512	
13	0	0	0	0	504	512	
14	0	0	0	0	504	510	
15	0	0	0	0	506	512	
0	0	0	0	0	504	513	
1	0	0	0	0	507	512	
2	0	0	0	0	506	512	
3	0	0	0	0	508	515	
4	0	0	0	0	505	513	
5	0	0	0	0	504	513	
6	0	0	0	0	504	512	
7	0	0	0	0	505	512	
8	0	0	0	0	504	510	
9	0	0	0	0	505	511	
10	0	0	0	0	506	511	
11	0	0	0	0	506	512	
12	0	0	0	0	507	512	
13	0	0	0	0	505	511	
14	0	0	0	0	503	513	
15	0	0	0	0	504	511	
0	0	0	0	0	505	510	
1	0	0	0	0	507	511	
2	0	0	0	0	507	511	
3	0	0	0	0	505	512	
4	0	0	0	0	504	511	
5	0	0	0	0	506	512	
6	0	0	0	0	507	511	
7	0	0	0	0	505	513	
8	0	0	0	0	506	510	
9	0	0	0	0	504	512	
10	0	0	0	0	506	513	
11	0	0	0	0	504	511	
12	0	0	0	0	505	510	
13	0	0	0	0	507	511	
14	0	0	0	0	505	510	
15	0	0	0	0	504	512	
0	0	0	0	0	505	511	
1	0	0	0	0	503	512	
2	0	0	0	0	507	513	
3	0	0	0	0	504	510	
4	0	0	0	0	504	511	
5	0	0	0	0	504	512	
6	0	0	0	0	504	511	
7	0	0	0	0	506	513	
8	0	0	0	0	507	512	
9	0	0	0	0	505	512	
10	0	0	0	0	505	510	
11	0	0	0	0	506	511	
12	0	0	0	0	505	512	
13	0	0	0	0	505	511	
14	0	0	0	0	507	511	
15	0	0	0	0	508	511	
0	0	0	0	0	504	512	
1	0	0	0	0	504	512	
2	0	0	0	0	504	510	
3	0	0	0	0	504	510	
4	0	0	0	0	506	511	
5	0	0	0	0	507	512	
6	0	0	0	0	506	512	
7	0	0	0	0	505	513	
8	0	0	0	0	505	514	
9	0	0	0	0	508	512	
10	0	0	0	0	504	511	
11	0	0	0	0	503	511	
12	0	0	0	0	504	512	
13	0	0	0	0	504	511	
14	0	0	0	0	505	512	
15	0	0	0	0	504	510	
0	0	0	0	0	506	510	
1	0	0	0	0	504	512	
2	0	0	0	0	506	512	
3	0	0	0	0	505	510	
4	0	0	0	0	508	512	
5	0	0	0	0	504	512	
6	0	0	0	0	507	512	
7	0	0	0	0	506	512	
8	0	0	0	0	506	512	
9	0	0	0	0	506	512	
10	0	0	0	0	506	513	
11	0	0	0	0	504	513	
12	0	0	0	0	505	513	
13	0	0	0	0	507	513	
14	0	0	0	0	504	512	
15	0	0	0	0	504	510	
0	0	0	0	0	506	511	
1	0	0	0	0	504	511	
2	0	0	0	0	507	511	
3	0	0	0	0	506	511	
4	0	0	0	0	504	510	
5	0	0	0	0	507	511	
6	0	0	0	0	504	512	
7	0	0	0	0	505	511	
8	0	0	0	0	504	511	
9	0	0	0	0	505	511	
10	0	0	0	0	507	511	
11	0	0	0	0	505	511	
12	0	0	0	0	504	512	
13	0	0	0	0	506	513	
14	0	0	0	0	504	511	
15	0	0	0	0	506	513	
0	0	0	0	0	507	516	
1	0	0	0	0	506	512	
2	0	0	0	0	507	512	
3	0	0	0	0	504	511	
4	0	0	0	0	505	513	
5	0	0	0	0	505	511	
6	0	0	0	0	507	510	
7	0	0	0	0	505	510	
8	0	0	0	0	505	511	
9	0	0	0	0	505	513	
10	0	0	0	0	505	513	
11	0	0	0	0	504	512	
12	0	0	0	0	505	512	
13	0	0	0	0	504	511	
14	0	0	0	0	505	512	
15	0	0	0	0	505	511	
0	0	0	0	0	505	510	
1	0	0	0	0	505	511	
2	0	0	0	0	507	512	
3	0	0	0	0	506	510	
4	0	0	0	0	505	514	
5	0	0	0	0	507	513	
6	0	0	0	0	506	513	
7	0	0	0	0	507	512	
8	0	0	0	0	507	513	
9	0	0	0	0	506	512	
10	0	0	0	0	504	512	
11	0	0	0	0	504	510	
12	0	0	0	0	503	513	
13	0	0	0	0	505	513	
14	0	0	0	0	505	512	
15	0	0	0	0	505	512	
0	0	0	0	0	505	510	
1	0	0	0	0	505	511	
2	0	0	0	0	505	512	
3	0	0	0	0	506	510	
4	0	0	0	0	504	511	
5	0	0	0	0	506	513	
6	0	0	0	0	505	511	
7	0	0	0	0	505	510	
8	0	0	0	0	504	512	
9	0	0	0	0	505	511	
10	0	0	0	0	505	513	
11	0	0	0	0	505	512	
12	0	0	0	0	505	512	
13	0	0	0	0	504	512	
14	0	0	0	0	505	511	
15	0	0	0	0	504	511	
0	0	0	0	0	505	510	
1	0	0	0	0	506	512	
2	0	0	0	0	507	512	
3	0	0	0	0	505	512	
4	0	0	0	0	505	512	
5	0	0	0	0	507	512	
6	0	0	0	0	505	511	
7	0	0	0	0	505	512	
8	0	0	0	0	505	512	
9	0	0	0	0	505	512	
10	0	0	0	0	504	511	
11	0	0	0	0	505	511	
12	0	0	0	0	505	511	
13	0	0	0	0	506	509	
14	0	0	0	0	507	511	
15	0	0	0	0	505	512	
0	0	0	0	0	505	511	
1	0	0	0	0	507	510	
2	0	0	0	0	506	513	
3	0	0	0	0	504	511	
4	0	0	0	0	506	512	
5	0	0	0	0	504	512	
6	0	0	0	0	503	511	
7	0	0	0	0	507	512	
8	0	0	0	0	507	513	
9	0	0	0	0	505	514	
10	0	0	0	0	507	513	
11	0	0	0	0	506	512	
12	0	0	0	0	504	511	
13	0	0	0	0	507	512	
14	0	0	0	0	504	511	
15	0	0	0	0	505	512	
0	0	0	0	0	505	513	
1	0	0	0	0	505	512	
2	0	0	0	0	504	511	
3	0	0	0	0	505	510	
4	0	0	0	0	506	513	
5	0	0	0	0	506	512	
6	0	0	0	0	505	511	
7	0	0	0	0	506	512	
8	0	0	0	0	504	510	
9	0	0	0	0	505	515	
10	0	0	0	0	505	511	
11	0	0	0	0	505	511	
12	0	0	0	0	506	512	
13	0	0	0	0	505	511	
14	0	0	0	0	508	512	
15	0	0	0	0	504	512	
0	0	0	0	0	504	512	
1	0	0	0	0	506	513	
2	0	0	0	0	506	513	
3	0	0	0	0	506	510	
4	0	0	0	0	505	512	
5	0	0	0	0	505	513	
6	0	0	0	0	504	511	
7	0	0	0	0	504	509	
8	0	0	0	0	504	512	
9	0	0	0	0	505	513	
10	0	0	0	0	503	508	
11	0	0	0	0	505	513	
12	0	0	0	0	505	512	
13	0	0	0	0	506	510	
14	0	0	0	0	507	512	
15	0	0	0	0	507	511	
0	0	0	0	0	505	511	
1	0	0	0	0	507	511	
2	0	0	0	0	508	513	
3	0	0	0	0	506	513	
4	0	0	0	0	504	511	
5	0	0	0	0	503	511	
6	0	0	0	0	505	511	
7	0	0	0	0	505	511	
8	0	0	0	0	505	513	
9	0	0	0	0	504	513	
10	0	0	0	0	504	515	
11	0	0	0	0	505	512	
12	0	0	0	0	504	512	
13	0	0	0	0	507	510	
14	0	0	0	0	505	513	
15	0	0	0	0	506	511	
0	0	0	0	0	506	513	
1	0	0	0	0	504	511	
2	0	0	0	0	506	512	
3	0	0	0	0	504	510	
4	0	0	0	0	505	512	
5	0	0	0	0	506	510	
6	0	0	0	0	506	512	
7	0	0	0	0	506	514	
8	0	0	0	0	506	512	
9	0	0	0	0	505	511	
10	0	0	0	0	505	513	
11	0	0	0	0	507	510	
12	0	0	0	0	505	511	
13	0	0	0	0	505	510	
14	0	0	0	0	504	511	
15	0	0	0	0	504	510	
0	0	0	0	0	504	512	
1	0	0	0	0	506	512	
2	0	0	0	0	505	514	
3	0	0	0	0	507	510	
4	0	0	0	0	506	512	
5	0	0	0	0	505	513	
6	0	0	0	0	508	513	
7	0	0	0	0	505	512	
8	0	0	0	0	504	511	
9	0	0	0	0	505	513	
10	0	0	0	0	505	513	
11	0	0	0	0	505	512	
12	0	0	0	0	506	511	
13	0	0	0	0	504	511	
14	0	0	0	0	504	511	
15	0	0	0	0	504	513	
0	0	0	0	0	506	511	
1	0	0	0	0	507	515	
2	0	0	0	0	505	512	
3	0	0	0	0	505	512	
4	0	0	0	0	505	512	
5	0	0	0	0	506	512	
6	0	0	0	0	507	512	
7	0	0	0	0	506	512	
8	0	0	0	0	506	511	
9	0	0	0	0	505	512	
10	0	0	0	0	504	512	
11	0	0	0	0	504	513	
12	0	0	0	0	504	511	
13	0	0	0	0	504	511	
14	0	0	0	0	505	512	
15	0	0	0	0	506	511	
0	0	0	0	0	507	511	
1	0	0	0	0	504	513	
2	0	0	0	0	504	510	
3	0	0	0	0	508	513	
4	0	0	0	0	507	512	
5	0	0	0	0	507	511	
6	0	0	0	0	507	512	
7	0	0	0	0	504	513	
8	0	0	0	0	505	512	
9	0	0	0	0	505	510	
10	0	0	0	0	505	511	
11	0	0	0	0	504	512	
12	0	0	0	0	505	512	
13	0	0	0	0	505	512	
14	0	0	0	0	506	513	
15	0	0	0	0	505	512	
0	0	0	0	0	507	512	
1	0	0	0	0	506	510	
2	0	0	0	0	507	512	
3	0	0	0	0	504	512	
4	0	0	0	0	504	511	
5	0	0	0	0	507	512	
6	0	0	0	0	504	511	
7	0	0	0	0	506	509	
8	0	0	0	0	505	512	
9	0	0	0	0	505	512	
10	0	0	0	0	505	513	
11	0	0	0	0	504	513	
12	0	0	0	0	504	513	
13	0	0	0	0	505	512	
14	0	0	0	0	505	512	
15	0	0	0	0	503	510	
0	0	0	0	0	505	510	
1	0	0	0	0	506	513	
2	0	0	0	0	506	512	
3	0	0	0	0	505	514	
4	0	0	0	0	506	512	
5	0	0	0	0	505	513	
6	0	0	0	0	506	511	
7	0	0	0	0	505	512	
8	0	0	0	0	504	513	
9	0	0	0	0	506	510	
10	0	0	0	0	506	511	
11	0	0	0	0	504	512	
12	0	0	0	0	506	512	
13	0	0	0	0	505	511	
14	0	0	0	0	505	511	
15	0	0	0	0	507	511	
0	0	0	0	0	505	510	
1	0	0	0	0	508	512	
2	0	0	0	0	505	510	
3	0	0	0	0	504	512	
4	0	0	0	0	504	510	
5	0	0	0	0	504	511	
6	0	0	0	0	504	511	
7	0	0	0	0	505	512	
8	0	0	0	0	505	512	
9	0	0	0	0	504	509	
10	0	0	0	0	505	512	
11	0	0	0	0	505	511	
12	0	0	0	0	506	513	
13	0	0	0	0	505	513	
14	0	0	0	0	506	513	
15	0	0	0	0	506	513	
0	0	0	0	0	504	511	
1	0	0	0	0	506	511	
2	0	0	0	0	503	513	
3	0	0	0	0	504	515	
4	0	0	0	0	505	512	
5	0	0	0	0	505	512	
6	0	0	0	0	505	512	
7	0	0	0	0	507	512	
8	0	0	0	0	505	511	
9	0	0	0	0	504	512	
10	0	0	0	0	507	511	
11	0	0	0	0	505	510	
12	0	0	0	0	505	512	
13	0	0	0	0	505	512	
14	0	0	0	0	505	510	
15	0	0	0	0	506	511	
0	0	0	0	0	506	511	
1	0	0	0	0	505	513	
2	0	0	0	0	504	510	
3	0	0	0	0	505	512	
4	0	0	0	0	504	513	
5	0	0	0	0	504	512	
6	0	0	0	0	505	513	
7	0	0	0	0	504	511	
8	0	0	0	0	505	511	
9	0	0	0	0	506	512	
10	0	0	0	0	506	512	
11	0	0	0	0	506	511	
12	0	0	0	0	505	510	
13	0	0	0	0	507	512	
14	0	0	0	0	507	512	
15	0	0	0	0	505	513	
0	0	0	0	0	505	511	
1	0	0	0	0	504	511	
2	0	0	0	0	507	511	
3	0	0	0	0	507	511	
4	0	0	0	0	504	512	
5	0	0	0	0	504	514	
6	0	0	0	0	503	513	
7	0	0	0	0	504	514	
8	0	0	0	0	507	512	
9	0	0	0	0	505	511	
10	0	0	0	0	505	511	
11	0	0	0	0	504	511	
12	0	0	0	0	507	513	
13	0	0	0	0	507	512	
14	0	0	0	0	507	508	
15	0	0	0	0	506	511	
0	0	0	0	0	506	511	
1	0	0	0	0	505	511	
2	0	0	0	0	505	512	
3	0	0	0	0	505	513	
4	0	0	0	0	506	513	
5	0	0	0	0	504	513	
6	0	0	0	0	505	514	
7	0	0	0	0	505	512	
8	0	0	0	0	506	511	
9	0	0	0	0	504	510	
10	0	0	0	0	506	511	
11	0	0	0	0	504	511	
12	0	0	0	0	506	511	
13	0	0	0	0	507	512	
14	0	0	0	0	505	511	
15	0	0	0	0	505	511	
0	0	0	0	0	505	512	
1	0	0	0	0	505	512	
2	0	0	0	0	507	511	
3	0	0	0	0	504	512	
4	0	0	0	0	506	513	
5	0	0	0	0	504	512	
6	0	0	0	0	504	512	
7	0	0	0	0	505	510	
8	0	0	0	0	506	512	
9	0	0	0	0	506	513	
10	0	0	0	0	505	512	
11	0	0	0	0	507	513	
12	0	0	0	0	507	511	
13	0	0	0	0	502	511	
14	0	0	0	0	505	513	
15	0	0	0	0	507	511	
0	0	0	0	0	505	511	
1	0	0	0	0	507	511	
2	0	0	0	0	507	510	
3	0	0	0	0	505	512	
4	0	0	0	0	507	514	
5	0	0	0	0	504	513	
6	0	0	0	0	504	511	
7	0	0	0	0	505	511	
8	0	0	0	0	505	513	
9	0	0	0	0	506	512	
10	0	0	0	0	505	512	
11	0	0	0	0	504	512	
12	0	0	0	0	504	510	
13	0	0	0	0	506	511	
14	0	0	0	0	507	511	
15	0	0	0	0	505	512	
0	0	0	0	0	505	511	
1	0	0	0	0	505	509	
2	0	0	0	0	506	510	
3	0	0	0	0	505	511	
4	0	0	0	0	504	513	
5	0	0	0	0	505	513	
6	0	0	0	0	503	513	
7	0	0	0	0	504	512	
8	0	0	0	0	505	511	
9	0	0	0	0	506	512	
10	0	0	0	0	505	512	
11	0	0	0	0	507	513	
12	0	0	0	0	503	512	
13	0	0	0	0	508	511	
14	0	0	0	0	503	511	
15	0	0	0	0	504	512	
0	0	0	0	0	504	513	
1	0	0	0	0	507	511	
2	0	0	0	0	506	511	
3	0	0	0	0	505	511	
4	0	0	0	0	504	512	
5	0	0	0	0	506	512	
6	0	0	0	0	508	514	
7	0	0	0	0	505	513	
8	0	0	0	0	507	510	
9	0	0	0	0	507	510	
10	0	0	0	0	505	512	
11	0	0	0	0	504	512	
12	0	0	0	0	505	513	
13	0	0	0	0	504	513	
14	0	0	0	0	503	511	
15	0	0	0	0	506	512	
0	0	0	0	0	507	510	
1	0	0	0	0	505	512	
2	0	0	0	0	505	511	
3	0	0	0	0	503	511	
4	0	0	0	0	506	512	
5	0	0	0	0	505	511	
6	0	0	0	0	505	514	
7	0	0	0	0	507	511	
8	0	0	0	0	507	510	
9	0	0	0	0	506	510	
10	0	0	0	0	504	512	
11	0	0	0	0	505	512	
12	0	0	0	0	505	513	
13	0	0	0	0	506	512	
14	0	0	0	0	504	511	
15	0	0	0	0	505	511	
0	0	0	0	0	505	513	
1	0	0	0	0	505	510	
2	0	0	0	0	504	510	
3	0	0	0	0	506	512	
4	0	0	0	0	506	511	
5	0	0	0	0	507	511	
6	0	0	0	0	505	511	
7	0	0	0	0	505	511	
8	0	0	0	0	507	512	
9	0	0	0	0	506	512	
10	0	0	0	0	507	513	
11	0	0	0	0	504	513	
12	0	0	0	0	505	513	
13	0	0	0	0	505	510	
14	0	0	0	0	505	513	
15	0	0	0	0	505	512	
0	0	0	0	0	504	514	
1	0	0	0	0	505	513	
2	0	0	0	0	505	513	
3	0	0	0	0	504	511	
4	0	0	0	0	505	513	
5	0	0	0	0	506	511	
6	0	0	0	0	506	511	
7	0	0	0	0	505	510	
8	0	0	0	0	506	513	
9	0	0	0	0	506	510	
10	0	0	0	0	506	512	
11	0	0	0	0	506	512	
12	0	0	0	0	506	514	
13	0	0	0	0	505	512	
14	0	0	0	0	508	512	
15	0	0	0	0	507	511	
0	0	0	0	0	505	513	
1	0	0	0	0	503	513	
2	0	0	0	0	506	512	
3	0	0	0	0	505	510	
4	0	0	0	0	505	512	
5	0	0	0	0	505	510	
6	0	0	0	0	505	511	
7	0	0	0	0	506	511	
8	0	0	0	0	506	511	
9	0	0	0	0	504	511	
10	0	0	0	0	505	512	
11	0	0	0	0	506	513	
12	0	0	0	0	507	513	
13	0	0	0	0	504	514	
14	0	0	0	0	507	513	
15	0	0	0	0	508	511	
0	0	0	0	0	505	511	
1	0	0	0	0	506	511	
2	0	0	0	0	506	511	
3	0	0	0	0	505	515	
4	0	0	0	0	505	512	
5	0	0	0	0	504	511	
6	0	0	0	0	506	510	
7	0	0	0	0	504	510	
8	0	0	0	0	504	511	
9	0	0	0	0	505	513	
10	0	0	0	0	504	510	
11	0	0	0	0	507	513	
12	0	0	0	0	506	513	
13	0	0	0	0	504	512	
14	0	0	0	0	505	510	
15	0	0	0	0	507	512	
0	0	0	0	0	505	510	
1	0	0	0	0	504	512	
2	0	0	0	0	505	513	
3	0	0	0	0	504	512	
4	0	0	0	0	506	512	
5	0	0	0	0	504	511	
6	0	0	0	0	507	511	
7	0	0	0	0	505	511	
8	0	0	0	0	505	511	
9	0	0	0	0	506	512	
10	0	0	0	0	504	511	
11	0	0	0	0	504	510	
12	0	0	0	0	504	512	
13	0	0	0	0	504	512	
14	0	0	0	0	504	511	
15	0	0	0	0	506	511	
0	0	0	0	0	507	511	
1	0	0	0	0	506	511	
2	0	0	0	0	505	512	
3	0	0	0	0	505	511	
4	0	0	0	0	504	515	
5	0	0	0	0	504	515	
6	0	0	0	0	504	514	
7	0	0	0	0	504	512	
8	0	0	0	0	507	514	
9	0	0	0	0	507	513	
10	0	0	0	0	505	511	
11	0	0	0	0	505	511	
12	0	0	0	0	507	511	
13	0	0	0	0	504	512	
14	0	0	0	0	504	512	
15	0	0	0	0	506	513	
0	0	0	0	0	506	512	
1	0	0	0	0	505	511	
2	0	0	0	0	505	513	
3	0	0	0	0	505	511	
4	0	0	0	0	506	511	
5	0	0	0	0	506	512	
6	0	0	0	0	507	511	
7	0	0	0	0	507	511	
8	0	0	0	0	505	513	
9	0	0	0	0	505	512	
10	0	0	0	0	505	511	
11	0	0	0	0	504	511	
12	0	0	0	0	504	511	
13	0	0	0	0	507	511	
14	0	0	0	0	505	511	
15	0	0	0	0	505	513	
0	0	0	0	0	505	512	
1	0	0	0	0	505	513	
2	0	0	0	0	505	513	
3	0	0	0	0	505	510	
4	0	0	0	0	504	511	
5	0	0	0	0	507	512	
6	0	0	0	0	506	511	
7	0	0	0	0	504	512	
8	0	0	0	0	506	512	
9	0	0	0	0	505	511	
10	0	0	0	0	505	512	
11	0	0	0	0	507	512	
12	0	0	0	0	505	513	
13	0	0	0	0	505	513	
14	0	0	0	0	507	511	
15	0	0	0	0	505	511	
0	0	0	0	0	508	512	
1	0	0	0	0	505	510	
2	0	0	0	0	504	513	
3	0	0	0	0	505	512	
4	0	0	0	0	505	513	
5	0	0	0	0	506	510	
6	0	0	0	0	505	512	
7	0	0	0	0	507	513	
8	0	0	0	0	505	512	
9	0	0	0	0	506	511	
10	0	0	0	0	505	510	
11	0	0	0	0	504	511	
12	0	0	0	0	504	513	
13	0	0	0	0	506	514	
14	0	0	0	0	506	512	
15	0	0	0	0	506	514	
0	0	0	0	0	506	512	
1	0	0	0	0	506	508	
2	0	0	0	0	505	511	
3	0	0	0	0	505	511	
4	0	0	0	0	504	511	
5	0	0	0	0	504	511	
6	0	0	0	0	506	512	
7	0	0	0	0	505	513	
8	0	0	0	0	505	512	
9	0	0	0	0	504	513	
10	0	0	0	0	504	513	
11	0	0	0	0	506	514	
12	0	0	0	0	506	512	
13	0	0	0	0	505	511	
14	0	0	0	0	507	512	
15	0	0	0	0	506	509	
0	0	0	0	0	506	512	
1	0	0	0	0	505	514	
2	0	0	0	0	504	512	
3	0	0	0	0	506	513	
4	0	0	0	0	506	512	
5	0	0	0	0	504	512	
6	0	0	0	0	506	512	
7	0	0	0	0	504	512	
8	0	0	0	0	505	511	
9	0	0	0	0	504	509	
10	0	0	0	0	507	512	
11	0	0	0	0	508	512	
12	0	0	0	0	506	511	
13	0	0	0	0	505	513	
14	0	0	0	0	504	510	
15	0	0	0	0	505	512	
0	0	0	0	0	507	512	
1	0	0	0	0	505	512	
2	0	0	0	0	507	512	
3	0	0	0	0	507	512	
4	0	0	0	0	507	512	
5	0	0	0	0	505	512	
6	0	0	0	0	505	511	
7	0	0	0	0	504	512	
8	0	0	0	0	505	512	
9	0	0	0	0	505	511	
10	0	0	0	0	505	511	
11	0	0	0	0	505	511	
12	0	0	0	0	505	511	
13	0	0	0	0	505	512	
14	0	0	0	0	506	511	
15	0	0	0	0	508	515	
0	0	0	0	0	507	513	
1	0	0	0	0	506	512	
2	0	0	0	0	504	511	
3	0	0	0	0	504	512	
4	0	0	0	0	504	512	
5	0	0	0	0	507	511	
6	0	0	0	0	504	512	
7	0	0	0	0	504	513	
8	0	0	0	0	506	511	
9	0	0	0	0	505	511	
10	0	0	0	0	505	512	
11	0	0	0	0	505	513	
12	0	0	0	0	504	512	
13	0	0	0	0	507	512	
14	0	0	0	0	506	512	
15	0	0	0	0	506	513	
0	0	0	0	0	503	511	
1	0	0	0	0	506	511	
2	0	0	0	0	504	512	
3	0	0	0	0	506	511	
4	0	0	0	0	508	511	
5	0	0	0	0	506	512	
6	0	0	0	0	504	512	
7	0	0	0	0	505	511	
8	0	0	0	0	506	513	
9	0	0	0	0	504	513	
10	0	0	0	0	506	512	
11	0	0	0	0	504	511	
12	0	0	0	0	505	512	
13	0	0	0	0	506	513	
14	0	0	0	0	505	510	
15	0	0	0	0	504	512	
0	0	0	0	0	505	510	
1	0	0	0	0	504	512	
2	0	0	0	0	505	513	
3	0	0	0	0	508	511	
4	0	0	0	0	505	512	
5	0	0	0	0	505	511	
6	0	0	0	0	506	513	
7	0	0	0	0	506	512	
8	0	0	0	0	506	511	
9	0	0	0	0	507	511	
10	0	0	0	0	506	512	
11	0	0	0	0	505	513	
12	0	0	0	0	507	512	
13	0	0	0	0	504	510	
14	0	0	0	0	502	511	
15	0	0	0	0	505	511	
0	0	0	0	0	507	511	
1	0	0	0	0	502	513	
2	0	0	0	0	504	513	
3	0	0	0	0	504	510	
4	0	0	0	0	505	513	
5	0	0	0	0	503	513	
6	0	0	0	0	505	512	
7	0	0	0	0	505	511	
8	0	0	0	0	507	511	
9	0	0	0	0	508	514	
10	0	0	0	0	507	512	
11	0	0	0	0	507	513	
12	0	0	0	0	507	512	
13	0	0	0	0	507	512	
14	0	0	0	0	507	511	
15	0	0	0	0	504	511	
0	0	0	0	0	505	510	
1	0	0	0	0	504	509	
2	0	0	0	0	504	512	
3	0	0	0	0	506	512	
4	0	0	0	0	504	513	
5	0	0	0	0	505	512	
6	0	0	0	0	504	513	
7	0	0	0	0	504	512	
8	0	0	0	0	504	514	
9	0	0	0	0	504	513	
10	0	0	0	0	507	512	
11	0	0	0	0	506	511	
12	0	0	0	0	505	510	
13	0	0	0	0	505	510	
14	0	0	0	0	505	510	
15	0	0	0	0	504	512	
0	0	0	0	0	505	513	
1	0	0	0	0	504	513	
2	0	0	0	0	505	512	
3	0	0	0	0	507	512	
4	0	0	0	0	504	512	
5	0	0	0	0	507	512	
6	0	0	0	0	506	510	
7	0	0	0	0	505	511	
8	0	0	0	0	505	512	
9	0	0	0	0	506	513	
10	0	0	0	0	507	513	
11	0	0	0	0	505	512	
12	0	0	0	0	507	511	
13	0	0	0	0	505	511	
14	0	0	0	0	503	512	
15	0	0	0	0	505	511	
0	0	0	0	0	506	510	
1	0	0	0	0	504	515	
2	0	0	0	0	505	511	
3	0	0	0	0	508	511	
4	0	0	0	0	506	514	
5	0	0	0	0	505	513	
6	0	0	0	0	505	513	
7	0	0	0	0	504	512	
8	0	0	0	0	505	511	
9	0	0	0	0	504	512	
10	0	0	0	0	506	511	
11	0	0	0	0	507	513	
12	0	0	0	0	506	511	
13	0	0	0	0	504	512	
14	0	0	0	0	505	512	
15	0	0	0	0	505	510	
0	0	0	0	0	505	512	
1	0	0	0	0	506	512	
2	0	0	0	0	504	511	
3	0	0	0	0	504	512	
4	0	0	0	0	504	512	
5	0	0	0	0	506	511	
6	0	0	0	0	507	511	
7	0	0	0	0	507	510	
8	0	0	0	0	507	512	
9	0	0	0	0	506	514	
10	0	0	0	0	507	512	
11	0	0	0	0	505	512	
12	0	0	0	0	504	513	
13	0	0	0	0	508	511	
14	0	0	0	0	504	511	
15	0	0	0	0	507	512	
0	0	0	0	0	507	513	
1	0	0	0	0	505	512	
2	0	0	0	0	504	512	
3	0	0	0	0	504	513	
4	0	0	0	0	505	510	
5	0	0	0	0	506	513	
6	0	0	0	0	503	512	
7	0	0	0	0	504	511	
8	0	0	0	0	505	512	
9	0	0	0	0	505	513	
10	0	0	0	0	505	510	
11	0	0	0	0	504	512	
12	0	0	0	0	506	512	
13	0	0	0	0	506	512	
14	0	0	0	0	504	511	
15	0	0	0	0	507	511	
0	0	0	0	0	504	513	
1	0	0	0	0	505	511	
2	0	0	0	0	506	510	
3	0	0	0	0	505	512	
4	0	0	0	0	505	513	
5	0	0	0	0	505	510	
6	0	0	0	0	505	513	
7	0	0	0	0	508	511	
8	0	0	0	0	506	510	
9	0	0	0	0	505	511	
10	0	0	0	0	504	512	
11	0	0	0	0	505	513	
12	0	0	0	0	505	513	
13	0	0	0	0	505	511	
14	0	0	0	0	505	511	
15	0	0	0	0	505	510	
0	0	0	0	0	507	511	
1	0	0	0	0	507	513	
2	0	0	0	0	505	512	
3	0	0	0	0	505	510	
4	0	0	0	0	505	512	
5	0	0	0	0	505	511	
6	0	0	0	0	504	513	
7	0	0	0	0	505	512	
8	0	0	0	0	508	512	
9	0	0	0	0	506	511	
10	0	0	0	0	504	511	
11	0	0	0	0	505	511	
12	0	0	0	0	505	511	
13	0	0	0	0	507	511	
14	0	0	0	0	506	513	
15	0	0	0	0	507	513	
0	0	0	0	0	505	513	
1	0	0	0	0	505	514	
2	0	0	0	0	505	513	
3	0	0	0	0	508	512	
4	0	0	0	0	508	510	
5	0	0	0	0	507	510	
6	0	0	0	0	505	512	
7	0	0	0	0	503	511	
8	0	0	0	0	504	512	
9	0	0	0	0	503	511	
10	0	0	0	0	504	511	
11	0	0	0	0	507	511	
12	0	0	0	0	507	513	
13	0	0	0	0	505	511	
14	0	0	0	0	505	513	
15	0	0	0	0	504	513	
0	0	0	0	0	505	510	
1	0	0	0	0	504	513	
2	0	0	0	0	505	515	
3	0	0	0	0	506	511	
4	0	0	0	0	507	510	
5	0	0	0	0	504	510	
6	0	0	0	0	507	513	
7	0	0	0	0	505	511	
8	0	0	0	0	507	510	
9	0	0	0	0	507	513	
10	0	0	0	0	504	510	
11	0	0	0	0	503	512	
12	0	0	0	0	505	512	
13	0	0	0	0	505	514	
14	0	0	0	0	508	512	
15	0	0	0	0	508	512	
0	0	0	0	0	505	513	
1	0	0	0	0	504	511	
2	0	0	0	0	507	511	
3	0	0	0	0	505	513	
4	0	0	0	0	504	512	
5	0	0	0	0	504	513	
6	0	0	0	0	506	512	
7	0	0	0	0	505	511	
8	0	0	0	0	503	511	
9	0	0	0	0	504	513	
10	0	0	0	0	505	513	
11	0	0	0	0	506	511	
12	0	0	0	0	507	512	
13	0	0	0	0	505	513	
14	0	0	0	0	505	511	
15	0	0	0	0	507	513	
0	0	0	0	0	504	512	
1	0	0	0	0	505	512	
2	0	0	0	0	504	516	
3	0	0	0	0	504	512	
4	0	0	0	0	504	508	
5	0	0	0	0	504	505	
6	0	0	0	0	507	510	
7	0	0	0	0	508	511	
8	0	0	0	0	508	509	
9	0	0	0	0	507	511	
10	0	0	0	0	505	513	
11	0	0	0	0	504	512	
12	0	0	0	0	507	512	
13	0	0	0	0	505	515	
14	0	0	0	0	508	513	
15	0	0	0	0	508	512	
0	0	0	0	0	506	514	
1	0	0	0	0	507	515	
2	0	0	0	0	508	513	
3	0	0	0	0	510	507	
4	0	0	0	0	506	509	
5	0	0	0	0	504	508	
6	0	0	0	0	503	512	
7	0	0	0	0	500	513	
8	0	0	0	0	499	512	
9	0	0	0	0	500	511	
10	0	0	0	0	499	511	
11	0	0	0	0	502	512	
12	0	0	0	0	505	512	
13	0	0	0	0	507	511	
14	0	0	0	0	508	514	
15	0	0	0	0	506	514	
0	0	0	0	0	505	512	
1	0	0	0	0	506	511	
2	0	0	0	0	504	514	
3	0	0	0	0	507	512	
4	0	0	0	0	505	511	
5	0	0	0	0	505	511	
6	0	0	0	0	506	510	
7	0	0	0	0	504	511	
8	0	0	0	0	505	512	
9	0	0	0	0	508	512	
10	0	0	0	0	507	516	
11	0	0	0	0	507	513	
12	0	0	0	0	507	515	
13	0	0	0	0	506	512	
14	0	0	0	0	509	512	
15	0	0	0	0	508	512	
0	0	0	0	0	508	511	
1	0	0	0	0	507	505	
2	0	0	0	0	504	508	
3	0	0	0	0	505	510	
4	0	0	0	0	502	511	
5	0	0	0	0	503	514	
6	0	0	0	0	503	513	
7	0	0	0	0	501	513	
8	0	0	0	0	496	511	
9	0	0	0	0	504	514	
10	0	0	0	0	507	515	
11	0	0	0	0	506	511	
12	0	0	0	0	506	512	
13	0	0	0	0	504	512	
14	0	0	0	0	507	513	
15	0	0	0	0	508	513	
0	0	0	0	0	510	511	
1	0	0	0	0	506	512	
2	0	0	0	0	505	512	
3	0	0	0	0	507	514	
4	0	0	0	0	506	512	
5	0	0	0	0	508	511	
6	0	0	0	0	505	513	
7	0	0	0	0	503	511	
8	0	0	0	0	500	513	
9	0	0	0	0	501	514	
10	0	0	0	0	508	511	
11	0	0	0	0	509	510	
12	0	0	0	0	510	509	
13	0	0	0	0	508	510	
14	0	0	0	0	504	512	
15	0	0	0	0	505	512	
0	0	0	0	0	504	511	
1	0	0	0	0	504	511	
2	0	0	0	0	505	510	
3	0	0	0	0	506	512	
4	0	0	0	0	507	513	
5	0	0	0	0	504	512	
6	0	0	0	0	507	513	
7	0	0	0	0	507	511	
8	0	0	0	0	506	511	
9	0	0	0	0	506	511	
10	0	0	0	0	507	511	
11	0	0	0	0	507	513	
12	0	0	0	0	504	512	
13	0	0	0	0	505	514	
14	0	0	0	0	504	513	
15	0	0	0	0	505	512	
0	0	0	0	0	512	512	
1	0	0	0	0	511	513	
2	0	0	0	0	508	514	
3	0	0	0	0	511	511	
4	0	0	0	0	510	510	
5	0	0	0	0	509	510	
6	0	0	0	0	504	511	
7	0	0	0	0	499	511	
8	0	0	0	0	495	510	
9	0	0	0	0	497	513	
10	0	0	0	0	503	511	
11	0	0	0	0	509	512	
12	0	0	0	0	506	512	
13	0	0	0	0	502	512	
14	0	0	0	0	498	513	
15	0	0	0	0	500	511	
0	0	0	0	0	500	512	
1	0	0	0	0	503	513	
2	0	0	0	0	500	514	
3	0	0	0	0	498	512	
4	0	0	0	0	496	511	
5	0	0	0	0	500	508	
6	0	0	0	0	508	509	
7	0	0	0	0	511	511	
8	0	0	0	0	510	510	
9	0	0	0	0	509	511	
10	0	0	0	0	507	513	
11	0	0	0	0	502	513	
12	0	0	0	0	500	515	
13	0	0	0	0	504	515	
14	0	0	0	0	509	515	
15	0	0	0	0	512	515	
0	0	0	0	0	513	511	
1	0	0	0	0	513	513	
2	0	0	0	0	520	511	
3	0	0	0	0	524	508	
4	0	0	0	0	513	510	
5	0	0	0	0	503	515	
6	0	0	0	0	496	512	
7	0	0	0	0	492	514	
8	0	0	0	0	496	515	
9	0	0	0	0	497	516	
10	0	0	0	0	492	507	
11	0	0	0	0	496	499	
12	0	0	0	0	502	508	
13	0	0	0	0	510	511	
14	0	0	0	0	517	514	
15	0	0	0	0	514	513	
0	0	0	0	0	507	509	
1	0	0	0	0	508	511	
2	0	0	0	0	507	510	
3	0	0	0	0	511	512	
4	0	0	0	0	511	514	
5	0	0	0	0	511	512	
6	0	0	0	0	507	512	
7	0	0	0	0	506	514	
8	0	0	0	0	506	513	
9	0	0	0	0	504	513	
10	0	0	0	0	503	512	
11	0	0	0	0	502	512	
12	0	0	0	0	497	509	
13	0	0	0	0	499	512	
14	0	0	0	0	504	512	
15	0	0	0	0	505	513	
0	0	0	0	0	509	511	
1	0	0	0	0	508	512	
2	0	0	0	0	510	511	
3	0	0	0	0	509	510	
4	0	0	0	0	508	512	
5	0	0	0	0	502	513	
6	0	0	0	0	497	512	
7	0	0	0	0	497	512	
8	0	0	0	0	495	512	
9	0	0	0	0	489	513	
10	0	0	0	0	495	512	
11	0	0	0	0	505	514	
12	0	0	0	0	507	515	
13	0	0	0	0	512	515	
14	0	0	0	0	511	515	
15	0	0	0	0	512	516	
0	0	0	0	0	515	516	
1	0	0	0	0	518	511	
2	0	0	0	0	513	501	
3	0	0	0	0	505	502	
4	0	0	0	0	502	510	
5	0	0	0	0	508	513	
6	0	0	0	0	505	512	
7	0	0	0	0	512	504	
8	0	0	0	0	517	504	
9	0	0	0	0	510	511	
10	0	0	0	0	497	514	
11	0	0	0	0	500	515	
12	0	0	0	0	504	513	
13	0	0	0	0	505	510	
14	0	0	0	0	507	512	
15	0	0	0	0	504	512	
0	0	0	0	0	500	514	
1	0	0	0	0	500	511	
2	0	0	0	0	505	512	
3	0	0	0	0	505	515	
4	0	0	0	0	488	510	
5	0	0	0	0	478	508	
6	0	0	0	0	490	509	
7	0	0	0	0	505	515	
8	0	0	0	0	514	518	
9	0	0	0	0	519	519	
10	0	0	0	0	520	519	
11	0	0	0	0	513	516	
12	0	0	0	0	516	511	
13	0	0	0	0	510	502	
14	0	0	0	0	500	505	
15	0	0	0	0	498	510	
0	0	0	0	0	488	513	
1	0	0	0	0	496	513	
2	0	0	0	0	512	513	
3	0	0	0	0	520	514	
4	0	0	0	0	512	512	
5	0	0	0	0	509	513	
6	0	0	0	0	511	515	
7	0	0	0	0	515	513	
8	0	0	0	0	523	511	
9	0	0	0	0	513	510	
10	0	0	0	0	508	509	
11	0	0	0	0	508	512	
12	0	0	0	0	502	519	
13	0	0	0	0	503	521	
14	0	0	0	0	491	518	
15	0	0	0	0	472	515	
0	0	0	0	0	474	512	
1	0	0	0	0	479	502	
2	0	0	0	0	478	494	
3	0	0	0	0	492	498	
4	0	0	0	0	506	505	
5	0	0	0	0	511	509	
6	0	0	0	0	521	508	
7	0	0	0	0	522	515	
8	0	0	0	0	514	519	
9	0	0	0	0	511	519	
10	0	0	0	0	516	520	
11	0	0	0	0	516	516	
12	0	0	0	0	524	515	
13	0	0	0	0	525	511	
14	0	0	0	0	519	505	
15	0	0	0	0	517	505	
0	0	0	0	0	513	510	
1	0	0	0	0	500	511	
2	0	0	0	0	488	509	
3	0	0	0	0	485	511	
4	0	0	0	0	496	513	
5	0	0	0	0	502	517	
6	0	0	0	0	495	519	
7	0	0	0	0	483	516	
8	0	0	0	0	493	520	
9	0	0	0	0	503	513	
10	0	0	0	0	504	507	
11	0	0	0	0	499	501	
12	0	0	0	0	504	506	
13	0	0	0	0	515	515	
14	0	0	0	0	526	509	
15	0	0	0	0	516	512	
0	0	0	0	0	512	512	
1	0	0	0	0	520	515	
2	0	0	0	0	519	511	
3	0	0	0	0	513	504	
4	0	0	0	0	515	510	
5	0	0	0	0	505	519	
6	0	0	0	0	497	519	
7	0	0	0	0	507	521	
8	0	0	0	0	511	529	
9	0	0	0	0	502	530	
10	0	0	0	0	500	526	
11	0	0	0	0	512	487	
12	0	0	0	0	504	477	
13	0	0	0	0	492	499	
14	0	0	0	0	504	511	
15	0	0	0	0	508	519	
0	0	0	0	0	505	523	
1	0	0	0	0	508	524	
2	0	0	0	0	499	523	
3	0	0	0	0	499	511	
4	0	0	0	0	504	502	
5	0	0	0	0	491	508	
6	0	0	0	0	470	503	
7	0	0	0	0	472	503	
8	0	0	0	0	500	513	
9	0	0	0	0	523	517	
10	0	0	0	0	543	515	
11	0	0	0	0	544	517	
12	0	0	0	0	533	514	
13	0	0	0	0	535	517	
14	0	0	0	0	524	515	
15	0	0	0	0	493	508	
0	0	0	0	0	475	503	
1	0	0	0	0	447	510	
2	0	0	0	0	439	502	
3	0	0	0	0	464	492	
4	0	0	0	0	499	506	
5	0	0	0	0	526	519	
6	0	0	0	0	543	513	
7	0	0	0	0	541	519	
8	0	0	0	0	548	511	
9	0	0	0	0	544	499	
10	0	0	0	0	511	517	
11	0	0	0	0	491	522	
12	0	0	0	0	467	500	
13	0	0	0	0	461	496	
14	0	0	0	0	477	520	
15	0	0	0	0	495	521	
0	0	0	0	0	501	515	
1	0	0	0	0	505	525	
2	0	0	0	0	518	529	
3	0	0	0	0	512	523	
4	0	0	0	0	520	510	
5	0	0	0	0	534	499	
6	0	0	0	0	535	492	
7	0	0	0	0	523	503	
8	0	0	0	0	498	519	
9	0	0	0	0	478	519	
10	0	0	0	0	491	519	
11	0	0	0	0	493	525	
12	0	0	0	0	500	518	
13	0	0	0	0	503	511	
14	0	0	0	0	499	522	
15	0	0	0	0	504	515	
0	0	0	0	0	515	512	
1	0	0	0	0	543	509	
2	0	0	0	0	550	495	
3	0	0	0	0	538	476	
4	0	0	0	0	514	490	
5	0	0	0	0	503	510	
6	0	0	0	0	515	527	
7	0	0	0	0	511	531	
8	0	0	0	0	519	506	
9	0	0	0	0	516	515	
10	0	0	0	0	498	535	
11	0	0	0	0	492	523	
12	0	0	0	0	473	503	
13	0	0	0	0	480	498	
14	0	0	0	0	476	502	
15	0	0	0	0	463	509	
0	0	0	0	0	475	510	
1	0	0	0	0	497	502	
2	0	0	0	0	510	508	
3	0	0	0	0	508	515	
4	0	0	0	0	492	508	
5	0	0	0	0	479	508	
6	0	0	0	0	491	508	
7	0	0	0	0	492	516	
8	0	0	0	0	486	523	
9	0	0	0	0	509	543	
10	0	0	0	0	506	533	
11	0	0	0	0	545	540	
12	0	0	0	0	563	520	
13	0	0	0	0	527	489	
14	0	0	0	0	495	464	
15	0	0	0	0	480	467	
0	0	0	0	0	488	498	
1	0	0	0	0	483	517	
2	0	0	0	0	498	527	
3	0	0	0	0	494	534	
4	0	0	0	0	511	519	
5	0	0	0	0	540	508	
6	0	0	0	0	542	517	
7	0	0	0	0	537	512	
8	0	0	0	0	543	519	
9	0	0	0	0	571	512	
10	0	0	0	0	567	519	
11	0	0	0	0	524	507	
12	0	0	0	0	494	504	
13	0	0	0	0	478	498	
14	0	0	0	0	475	502	
15	0	0	0	0	500	508	
0	0	0	0	0	516	520	
1	0	0	0	0	509	524	
2	0	0	0	0	498	515	
3	0	0	0	0	484	529	
4	0	0	0	0	475	534	
5	0	0	0	0	451	543	
6	0	0	0	0	437	535	
7	0	0	0	0	460	520	
8	0	0	0	0	483	508	
9	0	0	0	0	467	487	
10	0	0	0	0	465	478	
11	0	0	0	0	487	498	
12	0	0	0	0	537	496	
13	0	0	0	0	558	491	
14	0	0	0	0	576	526	
15	0	0	0	0	554	542	
0	0	0	0	0	558	524	
1	0	0	0	0	530	485	
2	0	0	0	0	513	492	
3	0	0	0	0	523	501	
4	0	0	0	0	514	492	
5	0	0	0	0	495	498	
6	0	0	0	0	476	518	
7	0	0	0	0	489	542	
8	0	0	0	0	490	523	
9	0	0	0	0	476	496	
10	0	0	0	0	455	500	
11	0	0	0	0	455	510	
12	0	0	0	0	491	533	
13	0	0	0	0	513	518	
14	0	0	0	0	502	508	
15	0	0	0	0	502	504	
0	0	0	0	0	520	518	
1	0	0	0	0	550	537	
2	0	0	0	0	565	539	
3	0	0	0	0	569	518	
4	0	0	0	0	546	501	
5	0	0	0	0	488	491	
6	0	0	0	0	495	492	
7	0	0	0	0	494	492	
8	0	0	0	0	480	498	
9	0	0	0	0	492	509	
10	0	0	0	0	504	518	
11	0	0	0	0	518	537	
12	0	0	0	0	489	549	
13	0	0	0	0	460	542	
14	0	0	0	0	459	498	
15	0	0	0	0	455	496	
0	0	0	0	0	472	513	
1	0	0	0	0	465	497	
2	0	0	0	0	518	489	
3	0	0	0	0	572	497	
4	0	0	0	0	571	497	
5	0	0	0	0	531	489	
6	0	0	0	0	520	509	
7	0	0	0	0	521	511	
8	0	0	0	0	507	504	
9	0	0	0	0	501	494	
10	0	0	0	0	496	485	
11	0	0	0	0	515	500	
12	0	0	0	0	515	524	
13	0	0	0	0	523	539	
14	0	0	0	0	519	555	
15	0	0	0	0	504	554	
0	0	0	0	0	486	518	
1	0	0	0	0	475	516	
2	0	0	0	0	461	528	
3	0	0	0	0	477	518	
4	0	0	0	0	475	503	
5	0	0	0	0	517	524	
6	0	0	0	0	564	547	
7	0	0	0	0	569	559	
8	0	0	0	0	600	535	
9	0	0	0	0	520	505	
10	0	0	0	0	477	471	
11	0	0	0	0	428	463	
12	0	0	0	0	427	496	
13	0	0	0	0	427	494	
14	0	0	0	0	459	518	
15	0	0	0	0	527	533	
0	0	0	0	0	558	515	
1	0	0	0	0	543	496	
2	0	0	0	0	540	481	
3	0	0	0	0	529	464	
4	0	0	0	0	513	492	
5	0	0	0	0	539	523	
6	0	0	0	0	504	521	
7	0	0	0	0	494	528	
8	0	0	0	0	528	533	
9	0	0	0	0	547	526	
10	0	0	0	0	497	539	
11	0	0	0	0	486	539	
12	0	0	0	0	496	524	
13	0	0	0	0	433	492	
14	0	0	0	0	384	471	
15	0	0	0	0	414	454	
0	0	0	0	0	480	498	
1	0	0	0	0	540	537	
2	0	0	0	0	566	551	
3	0	0	0	0	546	535	
4	0	0	0	0	528	517	
5	0	0	0	0	525	552	
6	0	0	0	0	542	527	
7	0	0	0	0	512	503	
8	0	0	0	0	490	492	
9	0	0	0	0	514	468	
10	0	0	0	0	516	512	
11	0	0	0	0	536	495	
12	0	0	0	0	511	483	
13	0	0	0	0	485	510	
14	0	0	0	0	507	515	
15	0	0	0	0	501	524	
0	0	0	0	0	518	510	
1	0	0	0	0	556	499	
2	0	0	0	0	585	496	
3	0	0	0	0	534	500	
4	0	0	0	0	489	525	
5	0	0	0	0	478	541	
6	0	0	0	0	470	543	
7	0	0	0	0	439	538	
8	0	0	0	0	431	517	
9	0	0	0	0	464	497	
10	0	0	0	0	524	518	
11	0	0	0	0	529	511	
12	0	0	0	0	473	472	
13	0	0	0	0	521	504	
14	0	0	0	0	583	483	
15	0	0	0	0	567	453	
0	0	0	0	0	495	462	
1	0	0	0	0	483	491	
2	0	0	0	0	480	548	
3	0	0	0	0	442	559	
4	0	0	0	0	449	559	
5	0	0	0	0	492	562	
6	0	0	0	0	514	563	
7	0	0	0	0	503	552	
8	0	0	0	0	507	535	
9	0	0	0	0	530	510	
10	0	0	0	0	516	511	
11	0	0	0	0	509	483	
12	0	0	0	0	505	444	
13	0	0	0	0	508	458	
14	0	0	0	0	492	501	
15	0	0	0	0	527	526	
0	0	0	0	0	538	536	
1	0	0	0	0	497	523	
2	0	0	0	0	464	513	
3	0	0	0	0	500	521	
4	0	0	0	0	532	508	
5	0	0	0	0	511	479	
6	0	0	0	0	540	484	
7	0	0	0	0	569	473	
8	0	0	0	0	595	510	
9	0	0	0	0	553	549	
10	0	0	0	0	508	527	
11	0	0	0	0	466	548	
12	0	0	0	0	452	480	
13	0	0	0	0	467	460	
14	0	0	0	0	452	506	
15	0	0	0	0	455	505	
0	0	0	0	0	508	491	
1	0	0	0	0	522	532	
2	0	0	0	0	487	574	
3	0	0	0	0	455	586	
4	0	0	0	0	483	563	
5	0	0	0	0	486	529	
6	0	0	0	0	463	529	
7	0	0	0	0	500	510	
8	0	0	0	0	587	463	
9	0	0	0	0	606	509	
10	0	0	0	0	568	518	
11	0	0	0	0	564	513	
12	0	0	0	0	597	487	
13	0	0	0	0	512	478	
14	0	0	0	0	466	484	
15	0	0	0	0	512	515	
0	0	0	0	0	562	502	
1	0	0	0	0	528	511	
2	0	0	0	0	433	530	
3	0	0	0	0	407	515	
4	0	0	0	0	379	463	
5	0	0	0	0	385	480	
6	0	0	0	0	384	503	
7	0	0	0	0	435	498	
8	0	0	0	0	472	480	
9	0	0	0	0	523	539	
10	0	0	0	0	517	551	
11	0	0	0	0	557	547	
12	0	0	0	0	555	538	
13	0	0	0	0	563	531	
14	0	0	0	0	549	484	
15	0	0	0	0	500	497	
0	0	0	0	0	479	511	
1	0	0	0	0	541	516	
2	0	0	0	0	588	556	
3	0	0	0	0	542	547	
4	0	0	0	0	547	533	
5	0	0	0	0	530	528	
6	0	0	0	0	486	464	
7	0	0	0	0	485	472	
8	0	0	0	0	468	500	
9	0	0	0	0	473	524	
10	0	0	0	0	514	526	
11	0	0	0	0	513	527	
12	0	0	0	0	479	519	
13	0	0	0	0	486	478	
14	0	0	0	0	513	454	
15	0	0	0	0	492	449	
0	0	0	0	0	505	469	
1	0	0	0	0	541	503	
2	0	0	0	0	583	544	
3	0	0	0	0	559	537	
4	0	0	0	0	569	568	
5	0	0	0	0	561	552	
6	0	0	0	0	524	556	
7	0	0	0	0	434	540	
8	0	0	0	0	428	544	
9	0	0	0	0	501	553	
10	0	0	0	0	518	532	
11	0	0	0	0	483	479	
12	0	0	0	0	507	455	
13	0	0	0	0	516	436	
14	0	0	0	0	525	501	
15	0	0	0	0	527	555	
0	0	0	0	0	487	514	
1	0	0	0	0	429	482	
2	0	0	0	0	415	506	
3	0	0	0	0	460	479	
4	0	0	0	0	469	504	
5	0	0	0	0	516	508	
6	0	0	0	0	569	527	
7	0	0	0	0	527	544	
8	0	0	0	0	472	531	
9	0	0	0	0	480	504	
10	0	0	0	0	508	508	
11	0	0	0	0	465	512	
12	0	0	0	0	486	510	
13	0	0	0	0	484	475	
14	0	0	0	0	499	475	
15	0	0	0	0	483	510	
0	0	0	0	0	510	527	
1	0	0	0	0	527	510	
2	0	0	0	0	551	525	
3	0	0	0	0	558	510	
4	0	0	0	0	531	480	
5	0	0	0	0	477	465	
6	0	0	0	0	459	427	
7	0	0	0	0	465	455	
8	0	0	0	0	548	542	
9	0	0	0	0	615	592	
10	0	0	0	0	601	552	
11	0	0	0	0	544	572	
12	0	0	0	0	480	588	
13	0	0	0	0	450	577	
14	0	0	0	0	455	568	
15	0	0	0	0	471	534	
0	0	0	0	0	521	487	
1	0	0	0	0	548	440	
2	0	0	0	0	534	459	
3	0	0	0	0	541	491	
4	0	0	0	0	575	499	
5	0	0	0	0	574	541	
6	0	0	0	0	475	521	
7	0	0	0	0	444	533	
8	0	0	0	0	478	556	
9	0	0	0	0	483	548	
10	0	0	0	0	477	539	
11	0	0	0	0	455	482	
12	0	0	0	0	480	415	
13	0	0	0	0	562	459	
14	0	0	0	0	573	472	
15	0	0	0	0	499	476	
0	0	0	0	0	454	447	
1	0	0	0	0	425	518	
2	0	0	0	0	376	556	
3	0	0	0	0	379	549	
4	0	0	0	0	483	527	
5	0	0	0	0	584	539	
6	0	0	0	0	601	540	
7	0	0	0	0	622	556	
8	0	0	0	0	615	561	
9	0	0	0	0	505	453	
10	0	0	0	0	353	439	
11	0	0	0	0	329	480	
12	0	0	0	0	414	531	
13	0	0	0	0	513	512	
14	0	0	0	0	554	509	
15	0	0	0	0	655	532	
0	0	0	0	0	749	577	
1	0	0	0	0	671	559	
2	0	0	0	0	550	525	
3	0	0	0	0	512	502	
4	0	0	0	0	464	489	
5	0	0	0	0	437	499	
6	0	0	0	0	424	503	
7	0	0	0	0	406	476	
8	0	0	0	0	404	471	
9	0	0	0	0	438	512	
10	0	0	0	0	472	510	
11	0	0	0	0	551	533	
12	0	0	0	0	555	573	
13	0	0	0	0	500	571	
14	0	0	0	0	548	484	
15	0	0	0	0	563	456	
0	0	0	0	0	466	505	
1	0	0	0	0	401	524	
2	0	0	0	0	472	493	
3	0	0	0	0	542	473	
4	0	0	0	0	480	493	
5	0	0	0	0	512	481	
6	0	0	0	0	536	527	
7	0	0	0	0	492	550	
8	0	0	0	0	513	538	
9	0	0	0	0	567	558	
10	0	0	0	0	540	496	
11	0	0	0	0	529	494	
12	0	0	0	0	559	486	
13	0	0	0	0	582	515	
14	0	0	0	0	556	451	
15	0	0	0	0	481	416	
0	0	0	0	0	459	366	
1	0	0	0	0	489	456	
2	0	0	0	0	491	573	
3	0	0	0	0	449	647	
4	0	0	0	0	419	654	
5	0	0	0	0	401	640	
6	0	0	0	0	454	611	
7	0	0	0	0	526	490	
8	0	0	0	0	517	476	
9	0	0	0	0	537	549	
10	0	0	0	0	574	512	
11	0	0	0	0	567	497	
12	0	0	0	0	560	483	
13	0	0	0	0	522	469	
14	0	0	0	0	391	463	
15	0	0	0	0	475	468	
0	0	0	0	0	503	493	
1	0	0	0	0	506	560	
2	0	0	0	0	553	492	
3	0	0	0	0	559	499	
4	0	0	0	0	527	541	
5	0	0	0	0	453	558	
6	0	0	0	0	496	486	
7	0	0	0	0	503	478	
8	0	0	0	0	467	480	
9	0	0	0	0	394	487	
10	0	0	0	0	500	519	
11	0	0	0	0	587	570	
12	0	0	0	0	636	542	
13	0	0	0	0	671	480	
14	0	0	0	0	624	451	
15	0	0	0	0	510	425	
0	0	0	0	0	321	454	
1	0	0	0	0	291	530	
2	0	0	0	0	316	553	
3	0	0	0	0	367	585	
4	0	0	0	0	438	576	
5	0	0	0	0	537	567	
6	0	0	0	0	672	545	
7	0	0	0	0	678	476	
8	0	0	0	0	583	447	
9	0	0	0	0	504	483	
10	0	0	0	0	486	517	
11	0	0	0	0	460	547	
12	0	0	0	0	453	569	
13	0	0	0	0	476	571	
14	0	0	0	0	496	497	
15	0	0	0	0	536	526	
0	0	0	0	0	541	535	
1	0	0	0	0	523	463	
2	0	0	0	0	628	407	
3	0	0	0	0	665	413	
4	0	0	0	0	615	441	
5	0	0	0	0	522	475	
6	0	0	0	0	481	499	
7	0	0	0	0	524	548	
8	0	0	0	0	510	556	
9	0	0	0	0	463	533	
10	0	0	0	0	443	510	
11	0	0	0	0	396	505	
12	0	0	0	0	427	516	
13	0	0	0	0	463	503	
14	0	0	0	0	431	444	
15	0	0	0	0	403	488	
0	0	0	0	0	451	522	
1	0	0	0	0	484	575	
2	0	0	0	0	500	577	
3	0	0	0	0	506	545	
4	0	0	0	0	495	545	
5	0	0	0	0	516	593	
6	0	0	0	0	569	564	
7	0	0	0	0	570	540	
8	0	0	0	0	561	491	
9	0	0	0	0	576	460	
10	0	0	0	0	560	463	
11	0	0	0	0	524	458	
12	0	0	0	0	457	460	
13	0	0	0	0	437	463	
14	0	0	0	0	467	464	
15	0	0	0	0	558	469	
0	0	0	0	0	590	536	
1	0	0	0	0	563	568	
2	0	0	0	0	529	582	
3	0	0	0	0	523	594	
4	0	0	0	0	469	479	
5	0	0	0	0	340	415	
6	0	0	0	0	294	476	
7	0	0	0	0	362	543	
8	0	0	0	0	470	622	
9	0	0	0	0	519	630	
10	0	0	0	0	539	531	
11	0	0	0	0	607	503	
12	0	0	0	0	643	522	
13	0	0	0	0	573	484	
14	0	0	0	0	578	466	
15	0	0	0	0	665	473	
0	0	0	0	0	617	494	
1	0	0	0	0	488	481	
2	0	0	0	0	422	475	
3	0	0	0	0	398	520	
4	0	0	0	0	437	545	
5	0	0	0	0	491	554	
6	0	0	0	0	479	574	
7	0	0	0	0	501	553	
8	0	0	0	0	505	502	
9	0	0	0	0	496	467	
10	0	0	0	0	405	478	
11	0	0	0	0	453	473	
12	0	0	0	0	531	503	
13	0	0	0	0	591	510	
14	0	0	0	0	600	502	
15	0	0	0	0	620	494	
0	0	0	0	0	532	526	
1	0	0	0	0	496	520	
2	0	0	0	0	471	491	
3	0	0	0	0	481	487	
4	0	0	0	0	520	460	
5	0	0	0	0	457	500	
6	0	0	0	0	435	553	
7	0	0	0	0	504	529	
8	0	0	0	0	562	500	
9	0	0	0	0	476	456	
10	0	0	0	0	425	458	
11	0	0	0	0	504	536	
12	0	0	0	0	525	547	
13	0	0	0	0	435	473	
14	0	0	0	0	430	454	
15	0	0	0	0	523	478	
0	0	0	0	0	545	491	
1	0	0	0	0	495	572	
2	0	0	0	0	487	684	
3	0	0	0	0	566	668	
4	0	0	0	0	585	643	
5	0	0	0	0	641	501	
6	0	0	0	0	600	370	
7	0	0	0	0	503	393	
8	0	0	0	0	357	439	
9	0	0	0	0	339	537	
10	0	0	0	0	477	649	
11	0	0	0	0	556	613	
12	0	0	0	0	540	510	
13	0	0	0	0	434	446	
14	0	0	0	0	378	450	
15	0	0	0	0	375	503	
0	0	0	0	0	485	523	
1	0	0	0	0	639	538	
2	0	0	0	0	779	483	
3	0	0	0	0	759	438	
4	0	0	0	0	581	472	
5	0	0	0	0	375	516	
6	0	0	0	0	348	573	
7	0	0	0	0	464	604	
8	0	0	0	0	497	547	
9	0	0	0	0	490	506	
10	0	0	0	0	520	509	
11	0	0	0	0	590	500	
12	0	0	0	0	496	440	
13	0	0	0	0	390	423	
14	0	0	0	0	439	453	
15	0	0	0	0	456	448	
0	0	0	0	0	499	470	
1	0	0	0	0	530	516	
2	0	0	0	0	529	574	
3	0	0	0	0	568	627	
4	0	0	0	0	589	572	
5	0	0	0	0	567	542	
6	0	0	0	0	540	511	
7	0	0	0	0	536	460	
8	0	0	0	0	474	464	
9	0	0	0	0	385	519	
10	0	0	0	0	391	566	
11	0	0	0	0	475	594	
12	0	0	0	0	527	588	
13	0	0	0	0	556	524	
14	0	0	0	0	563	505	
15	0	0	0	0	535	482	
0	0	0	0	0	499	478	
1	0	0	0	0	399	429	
2	0	0	0	0	450	384	
3	0	0	0	0	524	316	
4	0	0	0	0	520	350	
5	0	0	0	0	599	446	
6	0	0	0	0	655	652	
7	0	0	0	0	616	804	
8	0	0	0	0	558	714	
9	0	0	0	0	499	633	
10	0	0	0	0	482	567	
11	0	0	0	0	423	493	
12	0	0	0	0	424	484	
13	0	0	0	0	406	484	
14	0	0	0	0	402	465	
15	0	0	0	0	509	439	
0	0	0	0	0	552	459	
1	0	0	0	0	540	449	
2	0	0	0	0	517	448	
3	0	0	0	0	481	499	
4	0	0	0	0	489	538	
5	0	0	0	0	514	547	
6	0	0	0	0	464	520	
7	0	0	0	0	444	511	
8	0	0	0	0	417	472	
9	0	0	0	0	478	515	
10	0	0	0	0	525	525	
11	0	0	0	0	481	571	
12	0	0	0	0	498	543	
13	0	0	0	0	572	502	
14	0	0	0	0	575	511	
15	0	0	0	0	551	469	
0	0	0	0	0	572	463	
1	0	0	0	0	575	460	
2	0	0	0	0	559	486	
3	0	0	0	0	475	485	
4	0	0	0	0	419	471	
5	0	0	0	0	455	424	
6	0	0	0	0	460	449	
7	0	0	0	0	419	513	
8	0	0	0	0	512	636	
9	0	0	0	0	575	676	
10	0	0	0	0	574	587	
11	0	0	0	0	476	570	
12	0	0	0	0	472	597	
13	0	0	0	0	558	581	
14	0	0	0	0	608	563	
15	0	0	0	0	636	509	
0	0	0	0	0	578	459	
1	0	0	0	0	526	432	
2	0	0	0	0	448	438	
3	0	0	0	0	335	470	
4	0	0	0	0	358	496	
5	0	0	0	0	401	508	
6	0	0	0	0	455	497	
7	0	0	0	0	579	465	
8	0	0	0	0	648	527	
9	0	0	0	0	680	538	
10	0	0	0	0	627	500	
11	0	0	0	0	543	476	
12	0	0	0	0	423	507	
13	0	0	0	0	403	542	
14	0	0	0	0	472	563	
15	0	0	0	0	471	543	
0	0	0	0	0	524	492	
1	0	0	0	0	453	441	
2	0	0	0	0	440	519	
3	0	0	0	0	436	559	
4	0	0	0	0	395	572	
5	0	0	0	0	385	533	
6	0	0	0	0	440	505	
7	0	0	0	0	589	516	
8	0	0	0	0	694	520	
9	0	0	0	0	703	499	
10	0	0	0	0	628	490	
11	0	0	0	0	493	423	
12	0	0	0	0	452	411	
13	0	0	0	0	479	450	
14	0	0	0	0	460	475	
15	0	0	0	0	446	480	
0	0	0	0	0	468	523	
1	0	0	0	0	479	551	
2	0	0	0	0	443	556	
3	0	0	0	0	391	549	
4	0	0	0	0	495	577	
5	0	0	0	0	556	552	
6	0	0	0	0	585	496	
7	0	0	0	0	524	514	
8	0	0	0	0	505	494	
9	0	0	0	0	563	525	
10	0	0	0	0	574	597	
11	0	0	0	0	545	539	
12	0	0	0	0	550	547	
13	0	0	0	0	555	508	
14	0	0	0	0	485	454	
15	0	0	0	0	453	484	
0	0	0	0	0	412	507	
1	0	0	0	0	493	535	
2	0	0	0	0	590	520	
3	0	0	0	0	599	440	
4	0	0	0	0	557	435	
5	0	0	0	0	451	440	
6	0	0	0	0	427	470	
7	0	0	0	0	416	557	
8	0	0	0	0	402	531	
9	0	0	0	0	403	519	
10	0	0	0	0	424	609	
11	0	0	0	0	472	606	
12	0	0	0	0	565	553	
13	0	0	0	0	622	534	
14	0	0	0	0	644	456	
15	0	0	0	0	585	409	
0	0	0	0	0	456	404	
1	0	0	0	0	461	437	
2	0	0	0	0	513	576	
3	0	0	0	0	505	635	
4	0	0	0	0	550	645	
5	0	0	0	0	624	633	
6	0	0	0	0	575	613	
7	0	0	0	0	545	557	
8	0	0	0	0	529	410	
9	0	0	0	0	483	392	
10	0	0	0	0	370	403	
11	0	0	0	0	412	391	
12	0	0	0	0	496	413	
13	0	0	0	0	533	448	
14	0	0	0	0	463	476	
15	0	0	0	0	470	530	
0	0	0	0	0	511	566	
1	0	0	0	0	483	605	
2	0	0	0	0	504	585	
3	0	0	0	0	499	552	
4	0	0	0	0	500	524	
5	0	0	0	0	512	551	
6	0	0	0	0	559	547	
7	0	0	0	0	486	507	
8	0	0	0	0	487	505	
9	0	0	0	0	526	514	
10	0	0	0	0	474	479	
11	0	0	0	0	408	450	
12	0	0	0	0	435	442	
13	0	0	0	0	479	409	
14	0	0	0	0	531	437	
15	0	0	0	0	547	457	
0	0	0	0	0	579	547	
1	0	0	0	0	562	688	
2	0	0	0	0	528	687	
3	0	0	0	0	519	630	
4	0	0	0	0	523	535	
5	0	0	0	0	481	531	
6	0	0	0	0	372	486	
7	0	0	0	0	407	480	
8	0	0	0	0	549	496	
9	0	0	0	0	575	444	
10	0	0	0	0	589	420	
11	0	0	0	0	601	409	
12	0	0	0	0	528	438	
13	0	0	0	0	470	478	
14	0	0	0	0	428	508	
15	0	0	0	0	549	570	
0	0	0	0	0	612	649	
1	0	0	0	0	569	648	
2	0	0	0	0	500	542	
3	0	0	0	0	488	497	
4	0	0	0	0	442	487	
5	0	0	0	0	368	427	
6	0	0	0	0	401	486	
7	0	0	0	0	475	572	
8	0	0	0	0	580	564	
9	0	0	0	0	634	484	
10	0	0	0	0	612	459	
11	0	0	0	0	475	456	
12	0	0	0	0	458	520	
13	0	0	0	0	529	563	
14	0	0	0	0	560	571	
15	0	0	0	0	571	482	
0	0	0	0	0	576	462	
1	0	0	0	0	457	469	
2	0	0	0	0	383	464	
3	0	0	0	0	417	504	
4	0	0	0	0	480	463	
5	0	0	0	0	440	468	
6	0	0	0	0	447	502	
7	0	0	0	0	513	525	
8	0	0	0	0	524	548	
9	0	0	0	0	515	578	
10	0	0	0	0	535	612	
11	0	0	0	0	513	568	
12	0	0	0	0	469	519	
13	0	0	0	0	477	499	
14	0	0	0	0	530	506	
15	0	0	0	0	543	486	
0	0	0	0	0	556	481	
1	0	0	0	0	585	492	
2	0	0	0	0	600	492	
3	0	0	0	0	565	509	
4	0	0	0	0	446	500	
5	0	0	0	0	333	487	
6	0	0	0	0	375	527	
7	0	0	0	0	446	555	
8	0	0	0	0	504	549	
9	0	0	0	0	565	532	
10	0	0	0	0	588	516	
11	0	0	0	0	540	491	
12	0	0	0	0	508	507	
13	0	0	0	0	470	496	
14	0	0	0	0	453	463	
15	0	0	0	0	468	436	
0	0	0	0	0	561	508	
1	0	0	0	0	587	515	
2	0	0	0	0	559	519	
3	0	0	0	0	495	526	
4	0	0	0	0	479	589	
5	0	0	0	0	492	561	
6	0	0	0	0	471	570	
7	0	0	0	0	466	543	
8	0	0	0	0	490	506	
9	0	0	0	0	507	470	
10	0	0	0	0	477	438	
11	0	0	0	0	435	408	
12	0	0	0	0	519	409	
13	0	0	0	0	598	480	
14	0	0	0	0	685	538	
15	0	0	0	0	601	548	
0	0	0	0	0	485	591	
1	0	0	0	0	401	606	
2	0	0	0	0	415	566	
3	0	0	0	0	497	582	
4	0	0	0	0	494	551	
5	0	0	0	0	553	522	
6	0	0	0	0	615	540	
7	0	0	0	0	538	460	
8	0	0	0	0	439	445	
9	0	0	0	0	430	480	
10	0	0	0	0	553	462	
11	0	0	0	0	579	446	
12	0	0	0	0	490	434	
13	0	0	0	0	435	479	
14	0	0	0	0	428	512	
15	0	0	0	0	428	551	
0	0	0	0	0	440	535	
1	0	0	0	0	505	479	
2	0	0	0	0	545	433	
3	0	0	0	0	575	448	
4	0	0	0	0	564	476	
5	0	0	0	0	554	605	
6	0	0	0	0	505	697	
7	0	0	0	0	458	655	
8	0	0	0	0	535	611	
9	0	0	0	0	620	573	
10	0	0	0	0	559	542	
11	0	0	0	0	503	524	
12	0	0	0	0	519	505	
13	0	0	0	0	575	467	
14	0	0	0	0	527	384	
15	0	0	0	0	424	409	
0	0	0	0	0	396	445	
1	0	0	0	0	414	447	
2	0	0	0	0	391	464	
3	0	0	0	0	406	509	
4	0	0	0	0	451	534	
5	0	0	0	0	477	567	
6	0	0	0	0	445	560	
7	0	0	0	0	491	533	
8	0	0	0	0	540	556	
9	0	0	0	0	572	595	
10	0	0	0	0	559	550	
11	0	0	0	0	675	521	
12	0	0	0	0	707	478	
13	0	0	0	0	535	405	
14	0	0	0	0	433	415	
15	0	0	0	0	391	464	
0	0	0	0	0	471	452	
1	0	0	0	0	512	496	
2	0	0	0	0	486	535	
3	0	0	0	0	471	583	
4	0	0	0	0	531	556	
5	0	0	0	0	518	476	
6	0	0	0	0	481	455	
7	0	0	0	0	496	396	
8	0	0	0	0	567	435	
9	0	0	0	0	516	533	
10	0	0	0	0	472	670	
11	0	0	0	0	534	729	
12	0	0	0	0	542	645	
13	0	0	0	0	620	529	
14	0	0	0	0	545	436	
15	0	0	0	0	478	455	
0	0	0	0	0	491	451	
1	0	0	0	0	396	481	
2	0	0	0	0	412	514	
3	0	0	0	0	507	507	
4	0	0	0	0	543	492	
5	0	0	0	0	521	494	
6	0	0	0	0	535	566	
7	0	0	0	0	530	606	
8	0	0	0	0	462	540	
9	0	0	0	0	433	516	
10	0	0	0	0	487	451	
11	0	0	0	0	532	435	
12	0	0	0	0	511	407	
13	0	0	0	0	494	384	
14	0	0	0	0	472	399	
15	0	0	0	0	509	463	
0	0	0	0	0	535	509	
1	0	0	0	0	571	636	
2	0	0	0	0	544	682	
3	0	0	0	0	499	738	
4	0	0	0	0	453	622	
5	0	0	0	0	447	568	
6	0	0	0	0	511	572	
7	0	0	0	0	574	527	
8	0	0	0	0	558	417	
9	0	0	0	0	483	431	
10	0	0	0	0	491	458	
11	0	0	0	0	515	479	
12	0	0	0	0	452	476	
13	0	0	0	0	459	485	
14	0	0	0	0	544	518	
15	0	0	0	0	575	504	
0	0	0	0	0	571	486	
1	0	0	0	0	568	495	
2	0	0	0	0	508	505	
3	0	0	0	0	445	515	
4	0	0	0	0	450	505	
5	0	0	0	0	461	459	
6	0	0	0	0	462	451	
7	0	0	0	0	463	489	
8	0	0	0	0	482	553	
9	0	0	0	0	523	507	
10	0	0	0	0	555	492	
11	0	0	0	0	508	501	
12	0	0	0	0	426	520	
13	0	0	0	0	444	538	
14	0	0	0	0	442	583	
15	0	0	0	0	503	624	
0	0	0	0	0	555	606	
1	0	0	0	0	532	561	
2	0	0	0	0	598	540	
3	0	0	0	0	640	439	
4	0	0	0	0	479	388	
5	0	0	0	0	386	415	
6	0	0	0	0	535	449	
7	0	0	0	0	627	484	
8	0	0	0	0	574	547	
9	0	0	0	0	582	564	
10	0	0	0	0	488	575	
11	0	0	0	0	352	540	
12	0	0	0	0	286	510	
13	0	0	0	0	345	473	
14	0	0	0	0	435	483	
15	0	0	0	0	501	508	
0	0	0	0	0	610	564	
1	0	0	0	0	677	587	
2	0	0	0	0	726	526	
3	0	0	0	0	667	487	
4	0	0	0	0	502	446	
5	0	0	0	0	395	428	
6	0	0	0	0	339	452	
7	0	0	0	0	354	476	
8	0	0	0	0	448	530	
9	0	0	0	0	549	569	
10	0	0	0	0	632	568	
11	0	0	0	0	678	519	
12	0	0	0	0	600	492	
13	0	0	0	0	465	512	
14	0	0	0	0	366	519	
15	0	0	0	0	387	537	
0	0	0	0	0	422	516	
1	0	0	0	0	463	505	
2	0	0	0	0	521	508	
3	0	0	0	0	563	487	
4	0	0	0	0	592	467	
5	0	0	0	0	677	488	
6	0	0	0	0	640	474	
7	0	0	0	0	483	490	
8	0	0	0	0	439	547	
9	0	0	0	0	386	545	
10	0	0	0	0	379	537	
11	0	0	0	0	416	497	
12	0	0	0	0	470	508	
13	0	0	0	0	532	527	
14	0	0	0	0	567	565	
15	0	0	0	0	553	620	
0	0	0	0	0	520	643	
1	0	0	0	0	509	576	
2	0	0	0	0	484	515	
3	0	0	0	0	472	493	
4	0	0	0	0	467	504	
5	0	0	0	0	527	479	
6	0	0	0	0	572	448	
7	0	0	0	0	530	452	
8	0	0	0	0	505	494	
9	0	0	0	0	524	446	
10	0	0	0	0	565	457	
11	0	0	0	0	487	468	
12	0	0	0	0	476	471	
13	0	0	0	0	498	446	
14	0	0	0	0	498	515	
15	0	0	0	0	489	529	
0	0	0	0	0	547	533	
1	0	0	0	0	551	572	
2	0	0	0	0	529	551	
3	0	0	0	0	467	531	
4	0	0	0	0	483	595	
5	0	0	0	0	460	591	
6	0	0	0	0	421	514	
7	0	0	0	0	401	519	
8	0	0	0	0	477	526	
9	0	0	0	0	559	465	
10	0	0	0	0	580	389	
11	0	0	0	0	571	375	
12	0	0	0	0	568	407	
13	0	0	0	0	458	494	
14	0	0	0	0	474	571	
15	0	0	0	0	510	611	
0	0	0	0	0	503	601	
1	0	0	0	0	521	563	
2	0	0	0	0	575	534	
3	0	0	0	0	558	486	
4	0	0	0	0	527	486	
5	0	0	0	0	506	500	
6	0	0	0	0	497	527	
7	0	0	0	0	447	510	
8	0	0	0	0	512	509	
9	0	0	0	0	491	492	
10	0	0	0	0	459	477	
11	0	0	0	0	450	491	
12	0	0	0	0	411	551	
13	0	0	0	0	387	569	
14	0	0	0	0	411	534	
15	0	0	0	0	524	534	
0	0	0	0	0	665	495	
1	0	0	0	0	714	416	
2	0	0	0	0	585	427	
3	0	0	0	0	410	484	
4	0	0	0	0	402	537	
5	0	0	0	0	436	578	
6	0	0	0	0	482	561	
7	0	0	0	0	530	559	
8	0	0	0	0	548	549	
9	0	0	0	0	494	551	
10	0	0	0	0	496	550	
11	0	0	0	0	574	503	
12	0	0	0	0	559	480	
13	0	0	0	0	573	451	
14	0	0	0	0	639	457	
15	0	0	0	0	557	463	
0	0	0	0	0	505	475	
1	0	0	0	0	441	521	
2	0	0	0	0	390	511	
3	0	0	0	0	418	519	
4	0	0	0	0	454	519	
5	0	0	0	0	460	549	
6	0	0	0	0	521	560	
7	0	0	0	0	593	531	
8	0	0	0	0	550	563	
9	0	0	0	0	519	514	
10	0	0	0	0	540	503	
11	0	0	0	0	600	539	
12	0	0	0	0	547	515	
13	0	0	0	0	511	463	
14	0	0	0	0	423	440	
15	0	0	0	0	381	460	
0	0	0	0	0	376	477	
1	0	0	0	0	453	514	
2	0	0	0	0	515	519	
3	0	0	0	0	527	545	
4	0	0	0	0	511	538	
5	0	0	0	0	527	519	
6	0	0	0	0	549	486	
7	0	0	0	0	547	476	
8	0	0	0	0	535	457	
9	0	0	0	0	549	508	
10	0	0	0	0	497	593	
11	0	0	0	0	386	567	
12	0	0	0	0	440	512	
13	0	0	0	0	504	550	
14	0	0	0	0	528	591	
15	0	0	0	0	463	577	
0	0	0	0	0	522	560	
1	0	0	0	0	544	475	
2	0	0	0	0	519	456	
3	0	0	0	0	463	445	
4	0	0	0	0	568	430	
5	0	0	0	0	648	428	
6	0	0	0	0	543	425	
7	0	0	0	0	476	464	
8	0	0	0	0	505	523	
9	0	0	0	0	505	600	
10	0	0	0	0	504	605	
11	0	0	0	0	508	590	
12	0	0	0	0	499	557	
13	0	0	0	0	481	485	
14	0	0	0	0	443	450	
15	0	0	0	0	414	497	
0	0	0	0	0	442	539	
1	0	0	0	0	530	543	
2	0	0	0	0	615	488	
3	0	0	0	0	583	452	
4	0	0	0	0	540	429	
5	0	0	0	0	541	455	
6	0	0	0	0	505	522	
7	0	0	0	0	444	500	
8	0	0	0	0	418	543	
9	0	0	0	0	390	539	
10	0	0	0	0	452	544	
11	0	0	0	0	489	536	
12	0	0	0	0	511	518	
13	0	0	0	0	603	539	
14	0	0	0	0	627	537	
15	0	0	0	0	641	568	
0	0	0	0	0	586	518	
1	0	0	0	0	497	463	
2	0	0	0	0	409	526	
3	0	0	0	0	415	640	
4	0	0	0	0	487	606	
5	0	0	0	0	489	506	
6	0	0	0	0	446	410	
7	0	0	0	0	468	462	
8	0	0	0	0	499	479	
9	0	0	0	0	480	476	
10	0	0	0	0	444	485	
11	0	0	0	0	459	496	
12	0	0	0	0	466	537	
13	0	0	0	0	519	572	
14	0	0	0	0	585	572	
15	0	0	0	0	660	559	
0	0	0	0	0	647	468	
1	0	0	0	0	593	422	
2	0	0	0	0	507	464	
3	0	0	0	0	444	511	
4	0	0	0	0	397	519	
5	0	0	0	0	451	503	
6	0	0	0	0	494	476	
7	0	0	0	0	506	455	
8	0	0	0	0	471	394	
9	0	0	0	0	447	443	
10	0	0	0	0	417	484	
11	0	0	0	0	436	557	
12	0	0	0	0	467	649	
13	0	0	0	0	572	631	
14	0	0	0	0	649	598	
15	0	0	0	0	595	522	
0	0	0	0	0	504	506	
1	0	0	0	0	476	453	
2	0	0	0	0	560	445	
3	0	0	0	0	560	471	
4	0	0	0	0	529	513	
5	0	0	0	0	496	554	
6	0	0	0	0	513	559	
7	0	0	0	0	492	558	
8	0	0	0	0	482	519	
9	0	0	0	0	491	514	
10	0	0	0	0	557	508	
11	0	0	0	0	662	547	
12	0	0	0	0	535	484	
13	0	0	0	0	466	455	
14	0	0	0	0	440	487	
15	0	0	0	0	433	504	
0	0	0	0	0	496	566	
1	0	0	0	0	547	560	
2	0	0	0	0	543	559	
3	0	0	0	0	487	507	
4	0	0	0	0	409	488	
5	0	0	0	0	362	508	
6	0	0	0	0	401	473	
7	0	0	0	0	491	458	
8	0	0	0	0	576	469	
9	0	0	0	0	635	485	
10	0	0	0	0	564	432	
11	0	0	0	0	399	440	
12	0	0	0	0	289	459	
13	0	0	0	0	319	510	
14	0	0	0	0	478	553	
15	0	0	0	0	570	621	
0	0	0	0	0	564	620	
1	0	0	0	0	615	562	
2	0	0	0	0	611	551	
3	0	0	0	0	544	534	
4	0	0	0	0	516	510	
5	0	0	0	0	513	487	
6	0	0	0	0	519	522	
7	0	0	0	0	569	566	
8	0	0	0	0	625	529	
9	0	0	0	0	545	501	
10	0	0	0	0	491	507	
11	0	0	0	0	527	463	
12	0	0	0	0	531	419	
13	0	0	0	0	519	417	
14	0	0	0	0	473	462	
15	0	0	0	0	426	460	
0	0	0	0	0	411	493	
1	0	0	0	0	390	503	
2	0	0	0	0	439	485	
3	0	0	0	0	506	575	
4	0	0	0	0	530	618	
5	0	0	0	0	570	626	
6	0	0	0	0	570	607	
7	0	0	0	0	540	567	
8	0	0	0	0	544	535	
9	0	0	0	0	484	484	
10	0	0	0	0	494	488	
11	0	0	0	0	558	455	
12	0	0	0	0	568	415	
13	0	0	0	0	526	470	
14	0	0	0	0	393	518	
15	0	0	0	0	335	547	
0	0	0	0	0	406	527	
1	0	0	0	0	515	504	
2	0	0	0	0	619	496	
3	0	0	0	0	611	508	
4	0	0	0	0	531	480	
5	0	0	0	0	472	423	
6	0	0	0	0	440	448	
7	0	0	0	0	437	488	
8	0	0	0	0	535	517	
9	0	0	0	0	531	580	
10	0	0	0	0	508	599	
11	0	0	0	0	551	572	
12	0	0	0	0	548	547	
13	0	0	0	0	615	555	
14	0	0	0	0	629	542	
15	0	0	0	0	591	526	
0	0	0	0	0	468	453	
1	0	0	0	0	448	419	
2	0	0	0	0	434	375	
3	0	0	0	0	398	354	
4	0	0	0	0	371	435	
5	0	0	0	0	408	478	
6	0	0	0	0	462	642	
7	0	0	0	0	483	785	
8	0	0	0	0	492	718	
9	0	0	0	0	554	594	
10	0	0	0	0	620	545	
11	0	0	0	0	605	500	
12	0	0	0	0	568	431	
13	0	0	0	0	512	437	
14	0	0	0	0	431	439	
15	0	0	0	0	352	469	
0	0	0	0	0	418	481	
1	0	0	0	0	469	496	
2	0	0	0	0	487	545	
3	0	0	0	0	560	580	
4	0	0	0	0	700	525	
5	0	0	0	0	679	447	
6	0	0	0	0	494	428	
7	0	0	0	0	421	433	
8	0	0	0	0	481	489	
9	0	0	0	0	504	489	
10	0	0	0	0	545	489	
11	0	0	0	0	563	541	
12	0	0	0	0	521	544	
13	0	0	0	0	474	545	
14	0	0	0	0	433	614	
15	0	0	0	0	387	624	
0	0	0	0	0	361	572	
1	0	0	0	0	458	515	
2	0	0	0	0	556	536	
3	0	0	0	0	555	512	
4	0	0	0	0	611	463	
5	0	0	0	0	615	476	
6	0	0	0	0	554	443	
7	0	0	0	0	519	467	
8	0	0	0	0	483	489	
9	0	0	0	0	463	511	
10	0	0	0	0	380	490	
11	0	0	0	0	406	545	
12	0	0	0	0	476	537	
13	0	0	0	0	515	510	
14	0	0	0	0	569	508	
15	0	0	0	0	634	515	
0	0	0	0	0	620	502	
1	0	0	0	0	505	473	
2	0	0	0	0	435	496	
3	0	0	0	0	475	525	
4	0	0	0	0	560	491	
5	0	0	0	0	532	476	
6	0	0	0	0	428	489	
7	0	0	0	0	403	499	
8	0	0	0	0	420	515	
9	0	0	0	0	436	529	
10	0	0	0	0	472	572	
11	0	0	0	0	577	566	
12	0	0	0	0	684	487	
13	0	0	0	0	703	422	
14	0	0	0	0	511	411	
15	0	0	0	0	427	523	
0	0	0	0	0	484	638	
1	0	0	0	0	536	655	
2	0	0	0	0	595	609	
3	0	0	0	0	635	525	
4	0	0	0	0	654	480	
5	0	0	0	0	508	508	
6	0	0	0	0	297	480	
7	0	0	0	0	291	442	
8	0	0	0	0	339	445	
9	0	0	0	0	416	487	
10	0	0	0	0	515	514	
11	0	0	0	0	592	519	
12	0	0	0	0	561	559	
13	0	0	0	0	515	544	
14	0	0	0	0	524	428	
15	0	0	0	0	475	512	
0	0	0	0	0	424	540	
1	0	0	0	0	452	548	
2	0	0	0	0	487	555	
3	0	0	0	0	483	521	
4	0	0	0	0	540	508	
5	0	0	0	0	626	499	
6	0	0	0	0	622	496	
7	0	0	0	0	497	520	
8	0	0	0	0	464	530	
9	0	0	0	0	489	484	
10	0	0	0	0	497	449	
11	0	0	0	0	507	460	
12	0	0	0	0	529	508	
13	0	0	0	0	533	509	
14	0	0	0	0	480	511	
15	0	0	0	0	457	509	
0	0	0	0	0	475	465	
1	0	0	0	0	494	475	
2	0	0	0	0	486	485	
3	0	0	0	0	544	534	
4	0	0	0	0	595	567	
5	0	0	0	0	566	559	
6	0	0	0	0	500	563	
7	0	0	0	0	440	525	
8	0	0	0	0	403	506	
9	0	0	0	0	462	489	
10	0	0	0	0	523	456	
11	0	0	0	0	529	502	
12	0	0	0	0	460	559	
13	0	0	0	0	463	621	
14	0	0	0	0	499	609	
15	0	0	0	0	519	590	
0	0	0	0	0	634	511	
1	0	0	0	0	647	457	
2	0	0	0	0	543	420	
3	0	0	0	0	446	437	
4	0	0	0	0	413	460	
5	0	0	0	0	486	463	
6	0	0	0	0	531	467	
7	0	0	0	0	505	476	
8	0	0	0	0	542	519	
9	0	0	0	0	524	577	
10	0	0	0	0	504	608	
11	0	0	0	0	475	575	
12	0	0	0	0	444	557	
13	0	0	0	0	408	526	
14	0	0	0	0	423	481	
15	0	0	0	0	531	500	
0	0	0	0	0	548	468	
1	0	0	0	0	550	479	
2	0	0	0	0	543	495	
3	0	0	0	0	569	520	
4	0	0	0	0	527	534	
5	0	0	0	0	505	518	
6	0	0	0	0	545	488	
7	0	0	0	0	560	484	
8	0	0	0	0	523	461	
9	0	0	0	0	454	476	
10	0	0	0	0	440	497	
11	0	0	0	0	499	531	
12	0	0	0	0	557	587	
13	0	0	0	0	555	574	
14	0	0	0	0	544	544	
15	0	0	0	0	495	515	
0	0	0	0	0	491	508	
1	0	0	0	0	488	505	
2	0	0	0	0	497	516	
3	0	0	0	0	484	515	
4	0	0	0	0	466	501	
5	0	0	0	0	423	431	
6	0	0	0	0	404	427	
7	0	0	0	0	440	462	
8	0	0	0	0	462	496	
9	0	0	0	0	497	550	
10	0	0	0	0	542	587	
11	0	0	0	0	592	588	
12	0	0	0	0	588	551	
13	0	0	0	0	525	519	
14	0	0	0	0	478	493	
15	0	0	0	0	455	490	
0	0	0	0	0	480	513	
1	0	0	0	0	465	551	
2	0	0	0	0	548	534	
3	0	0	0	0	664	514	
4	0	0	0	0	664	476	
5	0	0	0	0	620	480	
6	0	0	0	0	523	452	
7	0	0	0	0	418	467	
8	0	0	0	0	360	489	
9	0	0	0	0	380	521	
10	0	0	0	0	399	537	
11	0	0	0	0	391	492	
12	0	0	0	0	414	460	
13	0	0	0	0	456	444	
14	0	0	0	0	499	524	
15	0	0	0	0	582	579	
0	0	0	0	0	662	621	
1	0	0	0	0	643	594	
2	0	0	0	0	554	568	
3	0	0	0	0	492	565	
4	0	0	0	0	453	505	
5	0	0	0	0	480	492	
6	0	0	0	0	547	432	
7	0	0	0	0	575	419	
8	0	0	0	0	554	467	
9	0	0	0	0	524	504	
10	0	0	0	0	496	470	
11	0	0	0	0	453	511	
12	0	0	0	0	453	588	
13	0	0	0	0	480	601	
14	0	0	0	0	512	575	
15	0	0	0	0	471	511	
0	0	0	0	0	467	519	
1	0	0	0	0	524	524	
2	0	0	0	0	521	468	
3	0	0	0	0	515	517	
4	0	0	0	0	523	536	
5	0	0	0	0	558	488	
6	0	0	0	0	508	500	
7	0	0	0	0	528	488	
8	0	0	0	0	533	485	
9	0	0	0	0	463	486	
10	0	0	0	0	432	499	
11	0	0	0	0	470	513	
12	0	0	0	0	469	527	
13	0	0	0	0	472	563	
14	0	0	0	0	473	575	
15	0	0	0	0	497	484	
0	0	0	0	0	518	468	
1	0	0	0	0	578	495	
2	0	0	0	0	577	492	
3	0	0	0	0	566	472	
4	0	0	0	0	574	516	
5	0	0	0	0	508	518	
6	0	0	0	0	496	520	
7	0	0	0	0	499	515	
8	0	0	0	0	524	524	
9	0	0	0	0	510	525	
10	0	0	0	0	464	487	
11	0	0	0	0	432	509	
12	0	0	0	0	408	528	
13	0	0	0	0	452	541	
14	0	0	0	0	519	527	
15	0	0	0	0	537	497	
0	0	0	0	0	519	499	
1	0	0	0	0	537	547	
2	0	0	0	0	523	572	
3	0	0	0	0	482	492	
4	0	0	0	0	500	468	
5	0	0	0	0	525	499	
6	0	0	0	0	533	525	
7	0	0	0	0	569	501	
8	0	0	0	0	494	455	
9	0	0	0	0	458	467	
10	0	0	0	0	468	469	
11	0	0	0	0	448	463	
12	0	0	0	0	391	502	
13	0	0	0	0	398	499	
14	0	0	0	0	489	517	
15	0	0	0	0	547	526	
0	0	0	0	0	603	497	
1	0	0	0	0	649	490	
2	0	0	0	0	636	528	
3	0	0	0	0	505	494	
4	0	0	0	0	440	587	
5	0	0	0	0	503	606	
6	0	0	0	0	609	644	
7	0	0	0	0	620	582	
8	0	0	0	0	567	518	
9	0	0	0	0	458	476	
10	0	0	0	0	380	454	
11	0	0	0	0	379	480	
12	0	0	0	0	446	476	
13	0	0	0	0	509	454	
14	0	0	0	0	540	436	
15	0	0	0	0	557	431	
0	0	0	0	0	487	500	
1	0	0	0	0	405	544	
2	0	0	0	0	462	615	
3	0	0	0	0	500	605	
4	0	0	0	0	548	601	
5	0	0	0	0	559	564	
6	0	0	0	0	500	507	
7	0	0	0	0	499	493	
8	0	0	0	0	508	494	
9	0	0	0	0	529	488	
10	0	0	0	0	539	528	
11	0	0	0	0	545	537	
12	0	0	0	0	511	496	
13	0	0	0	0	480	480	
14	0	0	0	0	472	489	
15	0	0	0	0	483	467	
0	0	0	0	0	509	470	
1	0	0	0	0	494	446	
2	0	0	0	0	524	460	
3	0	0	0	0	490	480	
4	0	0	0	0	450	494	
5	0	0	0	0	425	524	
6	0	0	0	0	499	543	
7	0	0	0	0	519	513	
8	0	0	0	0	560	504	
9	0	0	0	0	559	549	
10	0	0	0	0	507	595	
11	0	0	0	0	474	607	
12	0	0	0	0	499	564	
13	0	0	0	0	567	547	
14	0	0	0	0	541	495	
15	0	0	0	0	518	463	
0	0	0	0	0	469	478	
1	0	0	0	0	475	462	
2	0	0	0	0	506	483	
3	0	0	0	0	512	508	
4	0	0	0	0	512	467	
5	0	0	0	0	502	445	
6	0	0	0	0	498	469	
7	0	0	0	0	473	520	
8	0	0	0	0	495	575	
9	0	0	0	0	493	606	
10	0	0	0	0	458	617	
11	0	0	0	0	480	538	
12	0	0	0	0	514	441	
13	0	0	0	0	545	437	
14	0	0	0	0	527	461	
15	0	0	0	0	515	510	
0	0	0	0	0	558	529	
1	0	0	0	0	547	531	
2	0	0	0	0	583	499	
3	0	0	0	0	551	460	
4	0	0	0	0	502	496	
5	0	0	0	0	481	513	
6	0	0	0	0	490	520	
7	0	0	0	0	463	568	
8	0	0	0	0	437	565	
9	0	0	0	0	403	548	
10	0	0	0	0	459	545	
11	0	0	0	0	526	515	
12	0	0	0	0	595	465	
13	0	0	0	0	600	415	
14	0	0	0	0	572	439	
15	0	0	0	0	536	505	
0	0	0	0	0	502	578	
1	0	0	0	0	462	598	
2	0	0	0	0	456	572	
3	0	0	0	0	453	518	
4	0	0	0	0	465	507	
5	0	0	0	0	470	508	
6	0	0	0	0	478	507	
7	0	0	0	0	501	507	
8	0	0	0	0	504	512	
9	0	0	0	0	539	539	
10	0	0	0	0	531	548	
11	0	0	0	0	527	483	
12	0	0	0	0	517	480	
13	0	0	0	0	514	501	
14	0	0	0	0	517	515	
15	0	0	0	0	546	495	
0	0	0	0	0	523	462	
1	0	0	0	0	463	471	
2	0	0	0	0	505	469	
3	0	0	0	0	496	440	
4	0	0	0	0	471	466	
5	0	0	0	0	502	495	
6	0	0	0	0	484	515	
7	0	0	0	0	456	638	
8	0	0	0	0	487	648	
9	0	0	0	0	505	591	
10	0	0	0	0	467	493	
11	0	0	0	0	483	491	
12	0	0	0	0	543	517	
13	0	0	0	0	516	529	
14	0	0	0	0	533	508	
15	0	0	0	0	535	503	
0	0	0	0	0	517	467	
1	0	0	0	0	478	474	
2	0	0	0	0	426	499	
3	0	0	0	0	440	489	
4	0	0	0	0	512	484	
5	0	0	0	0	582	499	
6	0	0	0	0	583	512	
7	0	0	0	0	595	435	
8	0	0	0	0	593	363	
9	0	0	0	0	530	401	
10	0	0	0	0	489	489	
11	0	0	0	0	493	685	
12	0	0	0	0	475	828	
13	0	0	0	0	496	733	
14	0	0	0	0	537	496	
15	0	0	0	0	538	455	
0	0	0	0	0	515	509	
1	0	0	0	0	502	489	
2	0	0	0	0	531	481	
3	0	0	0	0	462	480	
4	0	0	0	0	414	493	
5	0	0	0	0	477	511	
6	0	0	0	0	553	504	
7	0	0	0	0	505	484	
8	0	0	0	0	400	449	
9	0	0	0	0	394	469	
10	0	0	0	0	437	482	
11	0	0	0	0	479	481	
12	0	0	0	0	536	499	
13	0	0	0	0	566	473	
14	0	0	0	0	590	460	
15	0	0	0	0	580	491	
0	0	0	0	0	516	532	
1	0	0	0	0	514	579	
2	0	0	0	0	518	605	
3	0	0	0	0	504	586	
4	0	0	0	0	478	558	
5	0	0	0	0	425	519	
6	0	0	0	0	432	523	
7	0	0	0	0	462	535	
8	0	0	0	0	515	523	
9	0	0	0	0	556	495	
10	0	0	0	0	608	410	
11	0	0	0	0	606	465	
12	0	0	0	0	469	492	
13	0	0	0	0	476	514	
14	0	0	0	0	489	504	
15	0	0	0	0	517	501	
0	0	0	0	0	501	487	
1	0	0	0	0	475	481	
2	0	0	0	0	498	521	
3	0	0	0	0	479	557	
4	0	0	0	0	436	559	
5	0	0	0	0	462	583	
6	0	0	0	0	524	590	
7	0	0	0	0	533	561	
8	0	0	0	0	525	486	
9	0	0	0	0	545	464	
10	0	0	0	0	577	396	
11	0	0	0	0	467	430	
12	0	0	0	0	458	480	
13	0	0	0	0	524	455	
14	0	0	0	0	521	459	
15	0	0	0	0	506	536	
0	0	0	0	0	497	573	
1	0	0	0	0	524	618	
2	0	0	0	0	527	584	
3	0	0	0	0	533	538	
4	0	0	0	0	569	522	
5	0	0	0	0	504	508	
6	0	0	0	0	500	524	
7	0	0	0	0	463	563	
8	0	0	0	0	488	574	
9	0	0	0	0	579	527	
10	0	0	0	0	589	409	
11	0	0	0	0	488	430	
12	0	0	0	0	439	477	
13	0	0	0	0	504	484	
14	0	0	0	0	487	476	
15	0	0	0	0	430	475	
0	0	0	0	0	421	496	
1	0	0	0	0	459	511	
2	0	0	0	0	514	500	
3	0	0	0	0	545	500	
4	0	0	0	0	494	525	
5	0	0	0	0	472	542	
6	0	0	0	0	480	549	
7	0	0	0	0	443	551	
8	0	0	0	0	417	543	
9	0	0	0	0	477	496	
10	0	0	0	0	562	527	
11	0	0	0	0	618	513	
12	0	0	0	0	601	481	
13	0	0	0	0	577	394	
14	0	0	0	0	491	390	
15	0	0	0	0	487	414	
0	0	0	0	0	448	537	
1	0	0	0	0	425	665	
2	0	0	0	0	441	711	
3	0	0	0	0	468	632	
4	0	0	0	0	479	580	
5	0	0	0	0	558	539	
6	0	0	0	0	611	511	
7	0	0	0	0	668	494	
8	0	0	0	0	581	402	
9	0	0	0	0	524	388	
10	0	0	0	0	513	482	
11	0	0	0	0	528	512	
12	0	0	0	0	519	533	
13	0	0	0	0	447	561	
14	0	0	0	0	409	570	
15	0	0	0	0	480	584	
0	0	0	0	0	568	560	
1	0	0	0	0	568	504	
2	0	0	0	0	575	473	
3	0	0	0	0	560	428	
4	0	0	0	0	509	423	
5	0	0	0	0	369	422	
6	0	0	0	0	351	466	
7	0	0	0	0	476	529	
8	0	0	0	0	515	560	
9	0	0	0	0	522	558	
10	0	0	0	0	500	623	
11	0	0	0	0	539	563	
12	0	0	0	0	502	504	
13	0	0	0	0	468	458	
14	0	0	0	0	456	416	
15	0	0	0	0	526	419	
0	0	0	0	0	479	435	
1	0	0	0	0	393	460	
2	0	0	0	0	454	496	
3	0	0	0	0	534	539	
4	0	0	0	0	576	588	
5	0	0	0	0	589	589	
6	0	0	0	0	551	583	
7	0	0	0	0	515	530	
8	0	0	0	0	460	502	
9	0	0	0	0	436	502	
10	0	0	0	0	436	497	
11	0	0	0	0	452	543	
12	0	0	0	0	478	524	
13	0	0	0	0	548	540	
14	0	0	0	0	539	558	
15	0	0	0	0	551	539	
0	0	0	0	0	589	492	
1	0	0	0	0	576	521	
2	0	0	0	0	515	525	
3	0	0	0	0	536	548	
4	0	0	0	0	576	503	
5	0	0	0	0	552	396	
6	0	0	0	0	439	347	
7	0	0	0	0	421	415	
8	0	0	0	0	449	442	
9	0	0	0	0	511	463	
10	0	0	0	0	524	419	
11	0	0	0	0	537	515	
12	0	0	0	0	560	611	
13	0	0	0	0	558	684	
14	0	0	0	0	477	686	
15	0	0	0	0	439	656	
0	0	0	0	0	480	622	
1	0	0	0	0	517	595	
2	0	0	0	0	560	498	
3	0	0	0	0	548	467	
4	0	0	0	0	503	494	
5	0	0	0	0	470	419	
6	0	0	0	0	384	413	
7	0	0	0	0	430	490	
8	0	0	0	0	557	519	
9	0	0	0	0	596	505	
10	0	0	0	0	617	498	
11	0	0	0	0	550	463	
12	0	0	0	0	481	434	
13	0	0	0	0	361	429	
14	0	0	0	0	347	462	
15	0	0	0	0	448	532	
0	0	0	0	0	501	555	
1	0	0	0	0	544	541	
2	0	0	0	0	595	516	
3	0	0	0	0	518	565	
4	0	0	0	0	520	600	
5	0	0	0	0	513	540	
6	0	0	0	0	441	506	
7	0	0	0	0	423	487	
8	0	0	0	0	449	492	
9	0	0	0	0	486	509	
10	0	0	0	0	483	511	
11	0	0	0	0	508	524	
12	0	0	0	0	609	527	
13	0	0	0	0	624	502	
14	0	0	0	0	643	498	
15	0	0	0	0	563	504	
0	0	0	0	0	439	485	
1	0	0	0	0	467	527	
2	0	0	0	0	532	549	
3	0	0	0	0	540	493	
4	0	0	0	0	544	480	
5	0	0	0	0	528	499	
6	0	0	0	0	439	546	
7	0	0	0	0	423	539	
8	0	0	0	0	479	530	
9	0	0	0	0	475	482	
10	0	0	0	0	551	481	
11	0	0	0	0	632	560	
12	0	0	0	0	609	484	
13	0	0	0	0	409	414	
14	0	0	0	0	334	467	
15	0	0	0	0	477	500	
0	0	0	0	0	559	515	
1	0	0	0	0	522	525	
2	0	0	0	0	478	512	
3	0	0	0	0	535	520	
4	0	0	0	0	435	483	
5	0	0	0	0	375	543	
6	0	0	0	0	376	576	
7	0	0	0	0	454	530	
8	0	0	0	0	579	525	
9	0	0	0	0	553	415	
10	0	0	0	0	587	458	
11	0	0	0	0	635	499	
12	0	0	0	0	556	564	
13	0	0	0	0	521	528	
14	0	0	0	0	529	451	
15	0	0	0	0	537	449	
0	0	0	0	0	546	498	
1	0	0	0	0	574	543	
2	0	0	0	0	564	639	
3	0	0	0	0	494	762	
4	0	0	0	0	496	660	
5	0	0	0	0	478	558	
6	0	0	0	0	350	511	
7	0	0	0	0	302	458	
8	0	0	0	0	398	509	
9	0	0	0	0	475	472	
10	0	0	0	0	547	419	
11	0	0	0	0	604	441	
12	0	0	0	0	573	452	
13	0	0	0	0	576	459	
14	0	0	0	0	550	483	
15	0	0	0	0	519	494	
0	0	0	0	0	519	527	
1	0	0	0	0	513	525	
2	0	0	0	0	451	531	
3	0	0	0	0	422	534	
4	0	0	0	0	443	485	
5	0	0	0	0	512	526	
6	0	0	0	0	500	514	
7	0	0	0	0	541	519	
8	0	0	0	0	594	539	
9	0	0	0	0	585	536	
10	0	0	0	0	549	522	
11	0	0	0	0	527	572	
12	0	0	0	0	507	543	
13	0	0	0	0	508	542	
14	0	0	0	0	522	533	
15	0	0	0	0	448	486	
0	0	0	0	0	382	477	
1	0	0	0	0	486	407	
2	0	0	0	0	521	398	
3	0	0	0	0	456	389	
4	0	0	0	0	430	420	
5	0	0	0	0	484	478	
6	0	0	0	0	516	479	
7	0	0	0	0	537	479	
8	0	0	0	0	526	532	
9	0	0	0	0	522	561	
10	0	0	0	0	542	516	
11	0	0	0	0	603	544	
12	0	0	0	0	598	583	
13	0	0	0	0	558	592	
14	0	0	0	0	481	646	
15	0	0	0	0	463	668	
0	0	0	0	0	433	525	
1	0	0	0	0	362	475	
2	0	0	0	0	374	489	
3	0	0	0	0	456	507	
4	0	0	0	0	508	491	
5	0	0	0	0	509	487	
6	0	0	0	0	440	495	
7	0	0	0	0	547	474	
8	0	0	0	0	581	506	
9	0	0	0	0	636	541	
10	0	0	0	0	635	545	
11	0	0	0	0	570	553	
12	0	0	0	0	472	542	
13	0	0	0	0	514	480	
14	0	0	0	0	551	525	
15	0	0	0	0	520	532	
0	0	0	0	0	504	561	
1	0	0	0	0	531	529	
2	0	0	0	0	507	451	
3	0	0	0	0	448	449	
4	0	0	0	0	466	489	
5	0	0	0	0	479	471	
6	0	0	0	0	455	526	
7	0	0	0	0	414	511	
8	0	0	0	0	376	488	
9	0	0	0	0	447	502	
10	0	0	0	0	528	508	
11	0	0	0	0	576	473	
12	0	0	0	0	509	464	
13	0	0	0	0	553	466	
14	0	0	0	0	576	465	
15	0	0	0	0	479	441	
0	0	0	0	0	513	419	
1	0	0	0	0	528	444	
2	0	0	0	0	505	454	
3	0	0	0	0	524	509	
4	0	0	0	0	584	630	
5	0	0	0	0	648	685	
6	0	0	0	0	613	639	
7	0	0	0	0	536	565	
8	0	0	0	0	411	492	
9	0	0	0	0	323	501	
10	0	0	0	0	272	507	
11	0	0	0	0	366	541	
12	0	0	0	0	486	527	
13	0	0	0	0	489	511	
14	0	0	0	0	551	506	
15	0	0	0	0	592	531	
0	0	0	0	0	673	562	
1	0	0	0	0	627	576	
2	0	0	0	0	557	478	
3	0	0	0	0	531	451	
4	0	0	0	0	548	444	
5	0	0	0	0	516	465	
6	0	0	0	0	435	526	
7	0	0	0	0	408	583	
8	0	0	0	0	439	606	
9	0	0	0	0	505	596	
10	0	0	0	0	555	590	
11	0	0	0	0	509	501	
12	0	0	0	0	536	387	
13	0	0	0	0	472	414	
14	0	0	0	0	409	399	
15	0	0	0	0	424	412	
0	0	0	0	0	451	455	
1	0	0	0	0	477	502	
2	0	0	0	0	474	543	
3	0	0	0	0	494	592	
4	0	0	0	0	538	546	
5	0	0	0	0	577	537	
6	0	0	0	0	572	533	
7	0	0	0	0	590	521	
8	0	0	0	0	554	467	
9	0	0	0	0	527	444	
10	0	0	0	0	514	497	
11	0	0	0	0	487	583	
12	0	0	0	0	480	711	
13	0	0	0	0	460	667	
14	0	0	0	0	503	574	
15	0	0	0	0	497	497	
0	0	0	0	0	540	467	
1	0	0	0	0	551	443	
2	0	0	0	0	526	427	
3	0	0	0	0	548	445	
4	0	0	0	0	496	415	
5	0	0	0	0	430	412	
6	0	0	0	0	397	452	
7	0	0	0	0	437	543	
8	0	0	0	0	484	571	
9	0	0	0	0	523	569	
10	0	0	0	0	548	591	
11	0	0	0	0	622	562	
12	0	0	0	0	688	513	
13	0	0	0	0	562	481	
14	0	0	0	0	496	463	
15	0	0	0	0	435	429	
0	0	0	0	0	343	441	
1	0	0	0	0	387	483	
2	0	0	0	0	464	520	
3	0	0	0	0	513	536	
4	0	0	0	0	536	543	
5	0	0	0	0	526	531	
6	0	0	0	0	514	514	
7	0	0	0	0	510	548	
8	0	0	0	0	504	572	
9	0	0	0	0	560	500	
10	0	0	0	0	575	499	
11	0	0	0	0	511	548	
12	0	0	0	0	498	564	
13	0	0	0	0	489	528	
14	0	0	0	0	478	525	
15	0	0	0	0	450	502	
0	0	0	0	0	441	483	
1	0	0	0	0	511	531	
2	0	0	0	0	536	519	
3	0	0	0	0	547	491	
4	0	0	0	0	578	444	
5	0	0	0	0	568	377	
6	0	0	0	0	484	330	
7	0	0	0	0	455	351	
8	0	0	0	0	475	419	
9	0	0	0	0	513	702	
10	0	0	0	0	497	795	
11	0	0	0	0	484	776	
12	0	0	0	0	521	735	
13	0	0	0	0	478	584	
14	0	0	0	0	503	507	
15	0	0	0	0	466	456	
0	0	0	0	0	408	451	
1	0	0	0	0	421	451	
2	0	0	0	0	432	482	
3	0	0	0	0	538	447	
4	0	0	0	0	601	394	
5	0	0	0	0	638	368	
6	0	0	0	0	640	384	
7	0	0	0	0	592	408	
8	0	0	0	0	534	437	
9	0	0	0	0	438	551	
10	0	0	0	0	393	650	
11	0	0	0	0	439	657	
12	0	0	0	0	480	561	
13	0	0	0	0	529	520	
14	0	0	0	0	552	518	
15	0	0	0	0	521	520	
0	0	0	0	0	538	522	
1	0	0	0	0	514	475	
2	0	0	0	0	480	480	
3	0	0	0	0	470	504	
4	0	0	0	0	553	536	
5	0	0	0	0	573	575	
6	0	0	0	0	540	556	
7	0	0	0	0	483	519	
8	0	0	0	0	393	461	
9	0	0	0	0	346	486	
10	0	0	0	0	467	505	
11	0	0	0	0	566	504	
12	0	0	0	0	619	543	
13	0	0	0	0	624	499	
14	0	0	0	0	541	476	
15	0	0	0	0	462	513	
0	0	0	0	0	411	531	
1	0	0	0	0	432	531	
2	0	0	0	0	479	524	
3	0	0	0	0	486	486	
4	0	0	0	0	518	480	
5	0	0	0	0	532	487	
6	0	0	0	0	585	461	
7	0	0	0	0	600	460	
8	0	0	0	0	554	515	
9	0	0	0	0	503	513	
10	0	0	0	0	411	516	
11	0	0	0	0	425	572	
12	0	0	0	0	484	543	
13	0	0	0	0	489	507	
14	0	0	0	0	481	547	
15	0	0	0	0	483	569	
0	0	0	0	0	521	530	
1	0	0	0	0	553	544	
2	0	0	0	0	564	527	
3	0	0	0	0	529	441	
4	0	0	0	0	509	466	
5	0	0	0	0	472	456	
6	0	0	0	0	459	439	
7	0	0	0	0	475	480	
8	0	0	0	0	502	496	
9	0	0	0	0	498	518	
10	0	0	0	0	511	567	
11	0	0	0	0	512	615	
12	0	0	0	0	498	586	
13	0	0	0	0	511	572	
14	0	0	0	0	522	551	
15	0	0	0	0	526	511	
0	0	0	0	0	490	515	
1	0	0	0	0	415	502	
2	0	0	0	0	483	483	
3	0	0	0	0	512	504	
4	0	0	0	0	527	529	
5	0	0	0	0	517	541	
6	0	0	0	0	499	475	
7	0	0	0	0	575	484	
8	0	0	0	0	572	436	
9	0	0	0	0	539	422	
10	0	0	0	0	520	414	
11	0	0	0	0	509	441	
12	0	0	0	0	515	467	
13	0	0	0	0	536	557	
14	0	0	0	0	546	603	
15	0	0	0	0	512	589	
0	0	0	0	0	487	576	
1	0	0	0	0	472	560	
2	0	0	0	0	481	519	
3	0	0	0	0	462	459	
4	0	0	0	0	479	475	
5	0	0	0	0	495	486	
6	0	0	0	0	448	497	
7	0	0	0	0	478	516	
8	0	0	0	0	488	569	
9	0	0	0	0	454	560	
10	0	0	0	0	498	525	
11	0	0	0	0	584	494	
12	0	0	0	0	551	481	
13	0	0	0	0	519	443	
14	0	0	0	0	519	469	
15	0	0	0	0	514	490	
0	0	0	0	0	479	483	
1	0	0	0	0	447	551	
2	0	0	0	0	487	631	
3	0	0	0	0	534	619	
4	0	0	0	0	524	556	
5	0	0	0	0	504	521	
6	0	0	0	0	502	523	
7	0	0	0	0	495	563	
8	0	0	0	0	516	523	
9	0	0	0	0	512	483	
10	0	0	0	0	495	459	
11	0	0	0	0	469	448	
12	0	0	0	0	449	449	
13	0	0	0	0	510	452	
14	0	0	0	0	546	428	
15	0	0	0	0	568	416	
0	0	0	0	0	550	450	
1	0	0	0	0	549	470	
2	0	0	0	0	563	552	
3	0	0	0	0	548	572	
4	0	0	0	0	540	528	
5	0	0	0	0	456	500	
6	0	0	0	0	442	519	
7	0	0	0	0	456	591	
8	0	0	0	0	403	583	
9	0	0	0	0	387	614	
10	0	0	0	0	423	654	
11	0	0	0	0	482	565	
12	0	0	0	0	578	491	
13	0	0	0	0	644	469	
14	0	0	0	0	632	435	
15	0	0	0	0	533	437	
0	0	0	0	0	496	479	
1	0	0	0	0	527	501	
2	0	0	0	0	515	519	
3	0	0	0	0	512	561	
4	0	0	0	0	534	494	
5	0	0	0	0	515	501	
6	0	0	0	0	500	556	
7	0	0	0	0	559	596	
8	0	0	0	0	569	516	
9	0	0	0	0	536	434	
10	0	0	0	0	431	395	
11	0	0	0	0	353	448	
12	0	0	0	0	395	475	
13	0	0	0	0	398	532	
14	0	0	0	0	459	542	
15	0	0	0	0	562	555	
0	0	0	0	0	563	546	
1	0	0	0	0	518	512	
2	0	0	0	0	493	492	
3	0	0	0	0	439	510	
4	0	0	0	0	486	531	
5	0	0	0	0	516	537	
6	0	0	0	0	523	459	
7	0	0	0	0	509	408	
8	0	0	0	0	581	469	
9	0	0	0	0	559	555	
10	0	0	0	0	487	593	
11	0	0	0	0	487	627	
12	0	0	0	0	540	585	
13	0	0	0	0	543	502	
14	0	0	0	0	536	495	
15	0	0	0	0	523	528	
0	0	0	0	0	551	500	
1	0	0	0	0	532	478	
2	0	0	0	0	414	487	
3	0	0	0	0	331	511	
4	0	0	0	0	374	513	
5	0	0	0	0	423	531	
6	0	0	0	0	469	487	
7	0	0	0	0	556	449	
8	0	0	0	0	649	411	
9	0	0	0	0	616	441	
10	0	0	0	0	519	480	
11	0	0	0	0	522	556	
12	0	0	0	0	521	513	
13	0	0	0	0	545	534	
14	0	0	0	0	527	543	
15	0	0	0	0	489	508	
0	0	0	0	0	472	547	
1	0	0	0	0	515	572	
2	0	0	0	0	549	586	
3	0	0	0	0	567	601	
4	0	0	0	0	572	530	
5	0	0	0	0	521	473	
6	0	0	0	0	483	460	
7	0	0	0	0	455	455	
8	0	0	0	0	444	443	
9	0	0	0	0	455	447	
10	0	0	0	0	469	456	
11	0	0	0	0	499	522	
12	0	0	0	0	508	571	
13	0	0	0	0	518	615	
14	0	0	0	0	527	636	
15	0	0	0	0	505	582	
0	0	0	0	0	515	550	
1	0	0	0	0	537	494	
2	0	0	0	0	482	455	
3	0	0	0	0	435	487	
4	0	0	0	0	476	496	
5	0	0	0	0	497	497	
6	0	0	0	0	505	472	
7	0	0	0	0	520	472	
8	0	0	0	0	512	489	
9	0	0	0	0	506	507	
10	0	0	0	0	519	504	
11	0	0	0	0	521	543	
12	0	0	0	0	516	518	
13	0	0	0	0	503	468	
14	0	0	0	0	487	453	
15	0	0	0	0	481	472	
0	0	0	0	0	528	500	
1	0	0	0	0	590	543	
2	0	0	0	0	584	622	
3	0	0	0	0	541	577	
4	0	0	0	0	442	495	
5	0	0	0	0	472	536	
6	0	0	0	0	478	513	
7	0	0	0	0	429	469	
8	0	0	0	0	405	473	
9	0	0	0	0	417	531	
10	0	0	0	0	515	520	
11	0	0	0	0	525	467	
12	0	0	0	0	451	482	
13	0	0	0	0	492	523	
14	0	0	0	0	581	504	
15	0	0	0	0	577	489	
0	0	0	0	0	547	454	
1	0	0	0	0	499	446	
2	0	0	0	0	531	473	
3	0	0	0	0	493	518	
4	0	0	0	0	475	537	
5	0	0	0	0	545	545	
6	0	0	0	0	560	590	
7	0	0	0	0	564	643	
8	0	0	0	0	482	588	
9	0	0	0	0	433	530	
10	0	0	0	0	448	517	
11	0	0	0	0	427	526	
12	0	0	0	0	473	509	
13	0	0	0	0	539	519	
14	0	0	0	0	577	473	
15	0	0	0	0	606	425	
0	0	0	0	0	599	449	
1	0	0	0	0	559	460	
2	0	0	0	0	579	519	
3	0	0	0	0	544	540	
4	0	0	0	0	494	527	
5	0	0	0	0	435	502	
6	0	0	0	0	414	487	
7	0	0	0	0	433	519	
8	0	0	0	0	461	500	
9	0	0	0	0	555	521	
10	0	0	0	0	576	550	
11	0	0	0	0	508	474	
12	0	0	0	0	439	451	
13	0	0	0	0	462	519	
14	0	0	0	0	457	588	
15	0	0	0	0	469	600	
0	0	0	0	0	492	551	
1	0	0	0	0	512	525	
2	0	0	0	0	509	525	
3	0	0	0	0	506	526	
4	0	0	0	0	528	550	
5	0	0	0	0	543	526	
6	0	0	0	0	541	494	
7	0	0	0	0	544	472	
8	0	0	0	0	560	458	
9	0	0	0	0	532	434	
10	0	0	0	0	519	425	
11	0	0	0	0	475	448	
12	0	0	0	0	436	495	
13	0	0	0	0	453	575	
14	0	0	0	0	478	623	
15	0	0	0	0	490	534	
0	0	0	0	0	477	549	
1	0	0	0	0	481	531	
2	0	0	0	0	501	488	
3	0	0	0	0	487	478	
4	0	0	0	0	479	492	
5	0	0	0	0	511	483	
6	0	0	0	0	543	491	
7	0	0	0	0	535	497	
8	0	0	0	0	511	511	
9	0	0	0	0	496	512	
10	0	0	0	0	503	492	
11	0	0	0	0	537	526	
12	0	0	0	0	560	533	
13	0	0	0	0	607	540	
14	0	0	0	0	576	523	
15	0	0	0	0	475	523	
0	0	0	0	0	408	509	
1	0	0	0	0	445	520	
2	0	0	0	0	483	525	
3	0	0	0	0	511	504	
4	0	0	0	0	561	490	
5	0	0	0	0	537	441	
6	0	0	0	0	504	511	
7	0	0	0	0	482	560	
8	0	0	0	0	479	540	
9	0	0	0	0	474	501	
10	0	0	0	0	477	478	
11	0	0	0	0	487	447	
12	0	0	0	0	502	467	
13	0	0	0	0	501	510	
14	0	0	0	0	511	596	
15	0	0	0	0	528	552	
0	0	0	0	0	522	529	
1	0	0	0	0	509	522	
2	0	0	0	0	520	490	
3	0	0	0	0	519	473	
4	0	0	0	0	521	470	
5	0	0	0	0	538	507	
6	0	0	0	0	540	519	
7	0	0	0	0	481	549	
8	0	0	0	0	487	600	
9	0	0	0	0	461	578	
10	0	0	0	0	438	549	
11	0	0	0	0	452	523	
12	0	0	0	0	524	475	
13	0	0	0	0	565	496	
14	0	0	0	0	582	514	
15	0	0	0	0	592	528	
0	0	0	0	0	554	501	
1	0	0	0	0	480	507	
2	0	0	0	0	478	527	
3	0	0	0	0	483	484	
4	0	0	0	0	454	459	
5	0	0	0	0	449	470	
6	0	0	0	0	475	494	
7	0	0	0	0	492	487	
8	0	0	0	0	514	517	
9	0	0	0	0	535	554	
10	0	0	0	0	539	581	
11	0	0	0	0	488	567	
12	0	0	0	0	455	525	
13	0	0	0	0	492	493	
14	0	0	0	0	527	478	
15	0	0	0	0	455	459	
0	0	0	0	0	496	466	
1	0	0	0	0	590	454	
2	0	0	0	0	569	432	
3	0	0	0	0	487	496	
4	0	0	0	0	443	479	
5	0	0	0	0	445	490	
6	0	0	0	0	452	475	
7	0	0	0	0	489	504	
8	0	0	0	0	535	540	
9	0	0	0	0	567	640	
10	0	0	0	0	588	659	
11	0	0	0	0	583	615	
12	0	0	0	0	551	570	
13	0	0	0	0	535	540	
14	0	0	0	0	494	465	
15	0	0	0	0	466	447	
0	0	0	0	0	428	487	
1	0	0	0	0	435	470	
2	0	0	0	0	453	477	
3	0	0	0	0	455	489	
4	0	0	0	0	467	506	
5	0	0	0	0	465	535	
6	0	0	0	0	451	524	
7	0	0	0	0	487	511	
8	0	0	0	0	586	528	
9	0	0	0	0	615	444	
10	0	0	0	0	635	417	
11	0	0	0	0	623	448	
12	0	0	0	0	540	513	
13	0	0	0	0	454	435	
14	0	0	0	0	348	430	
15	0	0	0	0	337	518	
0	0	0	0	0	455	627	
1	0	0	0	0	544	722	
2	0	0	0	0	568	691	
3	0	0	0	0	624	578	
4	0	0	0	0	638	474	
5	0	0	0	0	539	448	
6	0	0	0	0	459	452	
7	0	0	0	0	504	511	
8	0	0	0	0	516	522	
9	0	0	0	0	465	489	
10	0	0	0	0	492	467	
11	0	0	0	0	541	491	
12	0	0	0	0	551	548	
13	0	0	0	0	531	569	
14	0	0	0	0	521	550	
15	0	0	0	0	523	498	
0	0	0	0	0	477	461	
1	0	0	0	0	434	430	
2	0	0	0	0	425	455	
3	0	0	0	0	469	492	
4	0	0	0	0	486	562	
5	0	0	0	0	498	604	
6	0	0	0	0	502	574	
7	0	0	0	0	522	525	
8	0	0	0	0	523	482	
9	0	0	0	0	485	480	
10	0	0	0	0	476	502	
11	0	0	0	0	510	499	
12	0	0	0	0	559	524	
13	0	0	0	0	485	499	
14	0	0	0	0	451	495	
15	0	0	0	0	478	526	
0	0	0	0	0	510	517	
1	0	0	0	0	540	505	
2	0	0	0	0	532	500	
3	0	0	0	0	520	509	
4	0	0	0	0	501	510	
5	0	0	0	0	486	514	
6	0	0	0	0	483	489	
7	0	0	0	0	487	491	
8	0	0	0	0	512	488	
9	0	0	0	0	524	511	
10	0	0	0	0	566	551	
11	0	0	0	0	582	510	
12	0	0	0	0	572	495	
13	0	0	0	0	525	494	
14	0	0	0	0	455	502	
15	0	0	0	0	425	498	
0	0	0	0	0	463	459	
1	0	0	0	0	488	427	
2	0	0	0	0	481	423	
3	0	0	0	0	503	461	
4	0	0	0	0	543	587	
5	0	0	0	0	517	690	
6	0	0	0	0	465	659	
7	0	0	0	0	461	607	
8	0	0	0	0	465	547	
9	0	0	0	0	460	507	
10	0	0	0	0	515	474	
11	0	0	0	0	576	496	
12	0	0	0	0	568	481	
13	0	0	0	0	565	471	
14	0	0	0	0	515	488	
15	0	0	0	0	463	497	
0	0	0	0	0	473	490	
1	0	0	0	0	509	477	
2	0	0	0	0	506	486	
3	0	0	0	0	505	518	
4	0	0	0	0	519	514	
5	0	0	0	0	508	528	
6	0	0	0	0	514	527	
7	0	0	0	0	523	545	
8	0	0	0	0	467	526	
9	0	0	0	0	463	526	
10	0	0	0	0	589	538	
11	0	0	0	0	646	552	
12	0	0	0	0	596	517	
13	0	0	0	0	511	471	
14	0	0	0	0	489	474	
15	0	0	0	0	494	499	
0	0	0	0	0	401	508	
1	0	0	0	0	456	473	
2	0	0	0	0	505	460	
3	0	0	0	0	444	472	
4	0	0	0	0	369	497	
5	0	0	0	0	407	506	
6	0	0	0	0	484	527	
7	0	0	0	0	483	515	
8	0	0	0	0	506	527	
9	0	0	0	0	527	554	
10	0	0	0	0	541	550	
11	0	0	0	0	521	523	
12	0	0	0	0	515	493	
13	0	0	0	0	519	499	
14	0	0	0	0	511	512	
15	0	0	0	0	521	518	
0	0	0	0	0	528	483	
1	0	0	0	0	536	515	
2	0	0	0	0	548	551	
3	0	0	0	0	542	607	
4	0	0	0	0	519	560	
5	0	0	0	0	504	566	
6	0	0	0	0	506	566	
7	0	0	0	0	532	542	
8	0	0	0	0	535	470	
9	0	0	0	0	536	438	
10	0	0	0	0	542	451	
11	0	0	0	0	516	453	
12	0	0	0	0	469	466	
13	0	0	0	0	427	515	
14	0	0	0	0	479	545	
15	0	0	0	0	509	479	
0	0	0	0	0	494	477	
1	0	0	0	0	480	479	
2	0	0	0	0	518	513	
3	0	0	0	0	496	518	
4	0	0	0	0	470	491	
5	0	0	0	0	447	463	
6	0	0	0	0	469	499	
7	0	0	0	0	519	533	
8	0	0	0	0	505	510	
9	0	0	0	0	505	499	
10	0	0	0	0	545	492	
11	0	0	0	0	550	497	
12	0	0	0	0	529	524	
13	0	0	0	0	524	628	
14	0	0	0	0	515	674	
15	0	0	0	0	507	575	
0	0	0	0	0	513	528	
1	0	0	0	0	522	500	
2	0	0	0	0	542	494	
3	0	0	0	0	559	483	
4	0	0	0	0	509	460	
5	0	0	0	0	435	459	
6	0	0	0	0	415	472	
7	0	0	0	0	428	487	
8	0	0	0	0	455	519	
9	0	0	0	0	499	551	
10	0	0	0	0	530	556	
11	0	0	0	0	575	485	
12	0	0	0	0	593	417	
13	0	0	0	0	551	436	
14	0	0	0	0	511	495	
15	0	0	0	0	555	553	
0	0	0	0	0	563	534	
1	0	0	0	0	444	498	
2	0	0	0	0	367	489	
3	0	0	0	0	403	515	
4	0	0	0	0	447	563	
5	0	0	0	0	461	593	
6	0	0	0	0	519	643	
7	0	0	0	0	551	563	
8	0	0	0	0	593	452	
9	0	0	0	0	569	409	
10	0	0	0	0	579	431	
11	0	0	0	0	564	467	
12	0	0	0	0	550	555	
13	0	0	0	0	506	571	
14	0	0	0	0	465	574	
15	0	0	0	0	496	540	
0	0	0	0	0	504	545	
1	0	0	0	0	498	506	
2	0	0	0	0	500	483	
3	0	0	0	0	504	414	
4	0	0	0	0	511	378	
5	0	0	0	0	486	404	
6	0	0	0	0	453	497	
7	0	0	0	0	502	624	
8	0	0	0	0	542	671	
9	0	0	0	0	498	612	
10	0	0	0	0	485	560	
11	0	0	0	0	472	537	
12	0	0	0	0	544	501	
13	0	0	0	0	554	468	
14	0	0	0	0	510	441	
15	0	0	0	0	473	475	
0	0	0	0	0	431	463	
1	0	0	0	0	425	463	
2	0	0	0	0	412	485	
3	0	0	0	0	416	479	
4	0	0	0	0	461	503	
5	0	0	0	0	493	526	
6	0	0	0	0	501	534	
7	0	0	0	0	513	536	
8	0	0	0	0	535	536	
9	0	0	0	0	591	510	
10	0	0	0	0	646	504	
11	0	0	0	0	624	508	
12	0	0	0	0	552	524	
13	0	0	0	0	486	545	
14	0	0	0	0	433	541	
15	0	0	0	0	414	539	
0	0	0	0	0	432	539	
1	0	0	0	0	463	521	
2	0	0	0	0	502	550	
3	0	0	0	0	546	551	
4	0	0	0	0	554	550	
5	0	0	0	0	547	527	
6	0	0	0	0	595	493	
7	0	0	0	0	579	476	
8	0	0	0	0	549	467	
9	0	0	0	0	547	447	
10	0	0	0	0	543	453	
11	0	0	0	0	520	432	
12	0	0	0	0	436	452	
13	0	0	0	0	425	497	
14	0	0	0	0	445	556	
15	0	0	0	0	463	580	
0	0	0	0	0	487	580	
1	0	0	0	0	473	564	
2	0	0	0	0	453	533	
3	0	0	0	0	465	532	
4	0	0	0	0	548	555	
5	0	0	0	0	585	508	
6	0	0	0	0	565	417	
7	0	0	0	0	508	417	
8	0	0	0	0	494	472	
9	0	0	0	0	495	481	
10	0	0	0	0	515	460	
11	0	0	0	0	529	467	
12	0	0	0	0	521	490	
13	0	0	0	0	486	536	
14	0	0	0	0	470	633	
15	0	0	0	0	484	625	
0	0	0	0	0	491	588	
1	0	0	0	0	477	578	
2	0	0	0	0	525	544	
3	0	0	0	0	580	483	
4	0	0	0	0	598	468	
5	0	0	0	0	552	447	
6	0	0	0	0	515	511	
7	0	0	0	0	496	522	
8	0	0	0	0	473	531	
9	0	0	0	0	459	486	
10	0	0	0	0	434	415	
11	0	0	0	0	397	391	
12	0	0	0	0	419	449	
13	0	0	0	0	414	490	
14	0	0	0	0	444	536	
15	0	0	0	0	497	609	
0	0	0	0	0	481	583	
1	0	0	0	0	537	538	
2	0	0	0	0	620	516	
3	0	0	0	0	636	568	
4	0	0	0	0	572	577	
5	0	0	0	0	556	504	
6	0	0	0	0	556	487	
7	0	0	0	0	513	465	
8	0	0	0	0	471	476	
9	0	0	0	0	489	491	
10	0	0	0	0	494	507	
11	0	0	0	0	478	510	
12	0	0	0	0	474	510	
13	0	0	0	0	497	527	
14	0	0	0	0	523	535	
15	0	0	0	0	518	494	
0	0	0	0	0	500	440	
1	0	0	0	0	486	423	
2	0	0	0	0	495	460	
3	0	0	0	0	497	559	
4	0	0	0	0	475	632	
5	0	0	0	0	524	637	
6	0	0	0	0	547	643	
7	0	0	0	0	595	591	
8	0	0	0	0	625	510	
9	0	0	0	0	532	412	
10	0	0	0	0	447	385	
11	0	0	0	0	391	416	
12	0	0	0	0	417	435	
13	0	0	0	0	461	473	
14	0	0	0	0	514	571	
15	0	0	0	0	541	531	
0	0	0	0	0	535	536	
1	0	0	0	0	504	566	
2	0	0	0	0	442	499	
3	0	0	0	0	474	487	
4	0	0	0	0	491	501	
5	0	0	0	0	444	487	
6	0	0	0	0	476	519	
7	0	0	0	0	505	585	
8	0	0	0	0	544	678	
9	0	0	0	0	569	576	
10	0	0	0	0	565	464	
11	0	0	0	0	555	454	
12	0	0	0	0	548	466	
13	0	0	0	0	563	481	
14	0	0	0	0	524	470	
15	0	0	0	0	484	472	
0	0	0	0	0	444	512	
1	0	0	0	0	448	568	
2	0	0	0	0	454	527	
3	0	0	0	0	479	516	
4	0	0	0	0	508	475	
5	0	0	0	0	535	452	
6	0	0	0	0	530	484	
7	0	0	0	0	524	538	
8	0	0	0	0	502	472	
9	0	0	0	0	479	460	
10	0	0	0	0	486	521	
11	0	0	0	0	516	528	
12	0	0	0	0	546	578	
13	0	0	0	0	551	625	
14	0	0	0	0	509	541	
15	0	0	0	0	460	499	
0	0	0	0	0	432	492	
1	0	0	0	0	481	491	
2	0	0	0	0	561	500	
3	0	0	0	0	579	484	
4	0	0	0	0	489	468	
5	0	0	0	0	492	498	
6	0	0	0	0	504	519	
7	0	0	0	0	492	530	
8	0	0	0	0	480	508	
9	0	0	0	0	489	474	
10	0	0	0	0	487	471	
11	0	0	0	0	490	481	
12	0	0	0	0	489	540	
13	0	0	0	0	499	592	
14	0	0	0	0	523	592	
15	0	0	0	0	529	540	
0	0	0	0	0	530	495	
1	0	0	0	0	521	454	
2	0	0	0	0	529	459	
3	0	0	0	0	539	465	
4	0	0	0	0	525	498	
5	0	0	0	0	513	571	
6	0	0	0	0	487	530	
7	0	0	0	0	491	555	
8	0	0	0	0	512	558	
9	0	0	0	0	502	548	
10	0	0	0	0	508	530	
11	0	0	0	0	489	504	
12	0	0	0	0	461	513	
13	0	0	0	0	396	477	
14	0	0	0	0	410	467	
15	0	0	0	0	487	476	
0	0	0	0	0	512	474	
1	0	0	0	0	527	544	
2	0	0	0	0	607	551	
3	0	0	0	0	636	515	
4	0	0	0	0	575	473	
5	0	0	0	0	480	447	
6	0	0	0	0	477	458	
7	0	0	0	0	528	426	
8	0	0	0	0	523	408	
9	0	0	0	0	477	508	
10	0	0	0	0	508	692	
11	0	0	0	0	527	685	
12	0	0	0	0	505	615	
13	0	0	0	0	475	564	
14	0	0	0	0	432	541	
15	0	0	0	0	460	543	
0	0	0	0	0	488	533	
1	0	0	0	0	527	523	
2	0	0	0	0	534	483	
3	0	0	0	0	558	439	
4	0	0	0	0	575	422	
5	0	0	0	0	488	395	
6	0	0	0	0	400	353	
7	0	0	0	0	435	352	
8	0	0	0	0	484	383	
9	0	0	0	0	520	486	
10	0	0	0	0	548	604	
11	0	0	0	0	568	742	
12	0	0	0	0	528	716	
13	0	0	0	0	504	615	
14	0	0	0	0	510	551	
15	0	0	0	0	499	524	
0	0	0	0	0	495	521	
1	0	0	0	0	497	527	
2	0	0	0	0	525	517	
3	0	0	0	0	546	486	
4	0	0	0	0	578	443	
5	0	0	0	0	531	417	
6	0	0	0	0	446	434	
7	0	0	0	0	430	494	
8	0	0	0	0	487	510	
9	0	0	0	0	520	487	
10	0	0	0	0	517	477	
11	0	0	0	0	503	480	
12	0	0	0	0	479	492	
13	0	0	0	0	449	571	
14	0	0	0	0	445	623	
15	0	0	0	0	455	558	
0	0	0	0	0	470	523	
1	0	0	0	0	480	526	
2	0	0	0	0	520	521	
3	0	0	0	0	551	512	
4	0	0	0	0	539	504	
5	0	0	0	0	560	512	
6	0	0	0	0	580	487	
7	0	0	0	0	527	450	
8	0	0	0	0	491	455	
9	0	0	0	0	481	467	
10	0	0	0	0	493	474	
11	0	0	0	0	504	505	
12	0	0	0	0	501	563	
13	0	0	0	0	467	547	
14	0	0	0	0	469	519	
15	0	0	0	0	524	531	
0	0	0	0	0	571	546	
1	0	0	0	0	588	487	
2	0	0	0	0	620	548	
3	0	0	0	0	600	556	
4	0	0	0	0	492	524	
5	0	0	0	0	431	494	
6	0	0	0	0	399	501	
7	0	0	0	0	451	505	
8	0	0	0	0	482	530	
9	0	0	0	0	466	551	
10	0	0	0	0	469	524	
11	0	0	0	0	488	483	
12	0	0	0	0	526	498	
13	0	0	0	0	552	527	
14	0	0	0	0	574	576	
15	0	0	0	0	510	600	
0	0	0	0	0	480	537	
1	0	0	0	0	463	457	
2	0	0	0	0	484	444	
3	0	0	0	0	516	408	
4	0	0	0	0	502	426	
5	0	0	0	0	472	421	
6	0	0	0	0	470	437	
7	0	0	0	0	495	484	
8	0	0	0	0	525	539	
9	0	0	0	0	561	610	
10	0	0	0	0	556	585	
11	0	0	0	0	533	557	
12	0	0	0	0	533	529	
13	0	0	0	0	525	540	
14	0	0	0	0	459	483	
15	0	0	0	0	430	444	
0	0	0	0	0	464	496	
1	0	0	0	0	475	559	
2	0	0	0	0	521	604	
3	0	0	0	0	539	555	
4	0	0	0	0	495	472	
5	0	0	0	0	463	461	
6	0	0	0	0	501	502	
7	0	0	0	0	505	487	
8	0	0	0	0	494	438	
9	0	0	0	0	531	480	
10	0	0	0	0	552	574	
11	0	0	0	0	542	571	
12	0	0	0	0	528	585	
13	0	0	0	0	548	598	
14	0	0	0	0	539	583	
15	0	0	0	0	537	521	
0	0	0	0	0	531	448	
1	0	0	0	0	485	425	
2	0	0	0	0	421	422	
3	0	0	0	0	415	469	
4	0	0	0	0	464	507	
5	0	0	0	0	500	513	
6	0	0	0	0	506	539	
7	0	0	0	0	503	555	
8	0	0	0	0	507	537	
9	0	0	0	0	483	515	
10	0	0	0	0	489	509	
11	0	0	0	0	504	516	
12	0	0	0	0	508	525	
13	0	0	0	0	533	512	
14	0	0	0	0	543	505	
15	0	0	0	0	579	472	
0	0	0	0	0	553	419	
1	0	0	0	0	487	422	
2	0	0	0	0	488	460	
3	0	0	0	0	510	521	
4	0	0	0	0	510	625	
5	0	0	0	0	539	649	
6	0	0	0	0	523	571	
7	0	0	0	0	494	510	
8	0	0	0	0	448	513	
9	0	0	0	0	430	529	
10	0	0	0	0	517	544	
11	0	0	0	0	519	511	
12	0	0	0	0	501	467	
13	0	0	0	0	498	451	
14	0	0	0	0	614	399	
15	0	0	0	0	607	399	
0	0	0	0	0	486	455	
1	0	0	0	0	398	486	
2	0	0	0	0	415	542	
3	0	0	0	0	445	579	
4	0	0	0	0	456	550	
5	0	0	0	0	487	522	
6	0	0	0	0	542	528	
7	0	0	0	0	576	542	
8	0	0	0	0	562	575	
9	0	0	0	0	569	588	
10	0	0	0	0	521	568	
11	0	0	0	0	464	535	
12	0	0	0	0	440	505	
13	0	0	0	0	450	486	
14	0	0	0	0	485	497	
15	0	0	0	0	545	452	
0	0	0	0	0	573	452	
1	0	0	0	0	568	496	
2	0	0	0	0	468	521	
3	0	0	0	0	482	565	
4	0	0	0	0	537	604	
5	0	0	0	0	537	534	
6	0	0	0	0	526	511	
7	0	0	0	0	479	482	
8	0	0	0	0	463	451	
9	0	0	0	0	435	455	
10	0	0	0	0	434	494	
11	0	0	0	0	467	523	
12	0	0	0	0	549	528	
13	0	0	0	0	606	535	
14	0	0	0	0	613	472	
15	0	0	0	0	590	481	
0	0	0	0	0	530	526	
1	0	0	0	0	454	558	
2	0	0	0	0	395	526	
3	0	0	0	0	398	492	
4	0	0	0	0	430	473	
5	0	0	0	0	466	488	
6	0	0	0	0	536	501	
7	0	0	0	0	542	542	
8	0	0	0	0	531	528	
9	0	0	0	0	512	503	
10	0	0	0	0	533	491	
11	0	0	0	0	553	511	
12	0	0	0	0	511	493	
13	0	0	0	0	451	466	
14	0	0	0	0	406	473	
15	0	0	0	0	416	547	
0	0	0	0	0	484	573	
1	0	0	0	0	568	587	
2	0	0	0	0	612	554	
3	0	0	0	0	615	504	
4	0	0	0	0	565	463	
5	0	0	0	0	439	495	
6	0	0	0	0	378	536	
7	0	0	0	0	403	545	
8	0	0	0	0	472	551	
9	0	0	0	0	534	543	
10	0	0	0	0	561	498	
11	0	0	0	0	597	522	
12	0	0	0	0	567	475	
13	0	0	0	0	509	414	
14	0	0	0	0	502	415	
15	0	0	0	0	558	425	
0	0	0	0	0	530	451	
1	0	0	0	0	522	526	
2	0	0	0	0	516	566	
3	0	0	0	0	512	556	
4	0	0	0	0	518	567	
5	0	0	0	0	509	597	
6	0	0	0	0	506	609	
7	0	0	0	0	499	585	
8	0	0	0	0	485	533	
9	0	0	0	0	472	493	
10	0	0	0	0	492	488	
11	0	0	0	0	503	499	
12	0	0	0	0	526	507	
13	0	0	0	0	558	524	
14	0	0	0	0	533	504	
15	0	0	0	0	458	491	
0	0	0	0	0	441	521	
1	0	0	0	0	436	536	
2	0	0	0	0	455	512	
3	0	0	0	0	496	496	
4	0	0	0	0	513	473	
5	0	0	0	0	527	447	
6	0	0	0	0	550	456	
7	0	0	0	0	536	419	
8	0	0	0	0	481	417	
9	0	0	0	0	456	456	
10	0	0	0	0	491	520	
11	0	0	0	0	500	556	
12	0	0	0	0	499	543	
13	0	0	0	0	521	567	
14	0	0	0	0	527	571	
15	0	0	0	0	510	559	
0	0	0	0	0	465	539	
1	0	0	0	0	423	517	
2	0	0	0	0	472	509	
3	0	0	0	0	515	519	
4	0	0	0	0	533	534	
5	0	0	0	0	516	512	
6	0	0	0	0	483	537	
7	0	0	0	0	486	525	
8	0	0	0	0	460	468	
9	0	0	0	0	529	445	
10	0	0	0	0	652	449	
11	0	0	0	0	661	501	
12	0	0	0	0	674	569	
13	0	0	0	0	630	617	
14	0	0	0	0	547	532	
15	0	0	0	0	472	432	
0	0	0	0	0	376	419	
1	0	0	0	0	352	401	
2	0	0	0	0	381	388	
3	0	0	0	0	410	378	
4	0	0	0	0	468	495	
5	0	0	0	0	502	696	
6	0	0	0	0	503	795	
7	0	0	0	0	501	806	
8	0	0	0	0	514	667	
9	0	0	0	0	546	578	
10	0	0	0	0	576	547	
11	0	0	0	0	588	444	
12	0	0	0	0	583	386	
13	0	0	0	0	513	359	
14	0	0	0	0	463	353	
15	0	0	0	0	473	430	
0	0	0	0	0	469	500	
1	0	0	0	0	423	507	
2	0	0	0	0	393	500	
3	0	0	0	0	486	536	
4	0	0	0	0	548	543	
5	0	0	0	0	539	532	
6	0	0	0	0	510	531	
7	0	0	0	0	556	520	
8	0	0	0	0	555	494	
9	0	0	0	0	492	508	
10	0	0	0	0	436	507	
11	0	0	0	0	459	522	
12	0	0	0	0	476	563	
13	0	0	0	0	491	522	
14	0	0	0	0	518	475	
15	0	0	0	0	536	476	
0	0	0	0	0	540	491	
1	0	0	0	0	523	486	
2	0	0	0	0	504	486	
3	0	0	0	0	505	499	
4	0	0	0	0	519	529	
5	0	0	0	0	515	553	
6	0	0	0	0	509	565	
7	0	0	0	0	526	559	
8	0	0	0	0	539	527	
9	0	0	0	0	513	504	
10	0	0	0	0	497	496	
11	0	0	0	0	506	480	
12	0	0	0	0	519	467	
13	0	0	0	0	504	444	
14	0	0	0	0	495	450	
15	0	0	0	0	497	477	
0	0	0	0	0	509	514	
1	0	0	0	0	499	540	
2	0	0	0	0	487	590	
3	0	0	0	0	484	550	
4	0	0	0	0	483	511	
5	0	0	0	0	441	496	
6	0	0	0	0	501	495	
7	0	0	0	0	569	510	
8	0	0	0	0	564	571	
9	0	0	0	0	524	616	
10	0	0	0	0	516	600	
11	0	0	0	0	487	549	
12	0	0	0	0	499	527	
13	0	0	0	0	490	474	
14	0	0	0	0	501	459	
15	0	0	0	0	515	421	
0	0	0	0	0	517	408	
1	0	0	0	0	511	423	
2	0	0	0	0	500	459	
3	0	0	0	0	503	491	
4	0	0	0	0	515	611	
5	0	0	0	0	512	615	
6	0	0	0	0	470	554	
7	0	0	0	0	447	571	
8	0	0	0	0	439	545	
9	0	0	0	0	449	542	
10	0	0	0	0	523	547	
11	0	0	0	0	608	515	
12	0	0	0	0	606	439	
13	0	0	0	0	619	448	
14	0	0	0	0	548	468	
15	0	0	0	0	475	480	
0	0	0	0	0	462	509	
1	0	0	0	0	476	526	
2	0	0	0	0	485	531	
3	0	0	0	0	462	539	
4	0	0	0	0	460	508	
5	0	0	0	0	489	440	
6	0	0	0	0	555	385	
7	0	0	0	0	575	412	
8	0	0	0	0	607	467	
9	0	0	0	0	595	614	
10	0	0	0	0	510	755	
11	0	0	0	0	376	665	
12	0	0	0	0	376	523	
13	0	0	0	0	404	471	
14	0	0	0	0	452	455	
15	0	0	0	0	505	463	
0	0	0	0	0	519	488	
1	0	0	0	0	527	479	
2	0	0	0	0	542	465	
3	0	0	0	0	491	475	
4	0	0	0	0	457	483	
5	0	0	0	0	467	489	
6	0	0	0	0	494	519	
7	0	0	0	0	532	559	
8	0	0	0	0	548	553	
9	0	0	0	0	558	460	
10	0	0	0	0	521	417	
11	0	0	0	0	451	485	
12	0	0	0	0	467	580	
13	0	0	0	0	491	593	
14	0	0	0	0	526	668	
15	0	0	0	0	526	627	
0	0	0	0	0	490	537	
1	0	0	0	0	448	489	
2	0	0	0	0	469	461	
3	0	0	0	0	594	460	
4	0	0	0	0	682	492	
5	0	0	0	0	688	480	
6	0	0	0	0	631	461	
7	0	0	0	0	502	463	
8	0	0	0	0	415	511	
9	0	0	0	0	389	484	
10	0	0	0	0	412	492	
11	0	0	0	0	472	504	
12	0	0	0	0	501	500	
13	0	0	0	0	497	487	
14	0	0	0	0	504	480	
15	0	0	0	0	502	497	
0	0	0	0	0	473	515	
1	0	0	0	0	448	524	
2	0	0	0	0	475	608	
3	0	0	0	0	508	637	
4	0	0	0	0	458	568	
5	0	0	0	0	401	538	
6	0	0	0	0	460	543	
7	0	0	0	0	561	528	
8	0	0	0	0	586	481	
9	0	0	0	0	583	455	
10	0	0	0	0	597	451	
11	0	0	0	0	568	475	
12	0	0	0	0	531	490	
13	0	0	0	0	518	497	
14	0	0	0	0	503	511	
15	0	0	0	0	455	508	
0	0	0	0	0	423	483	
1	0	0	0	0	430	496	
2	0	0	0	0	457	583	
3	0	0	0	0	519	566	
4	0	0	0	0	565	516	
5	0	0	0	0	586	515	
6	0	0	0	0	579	491	
7	0	0	0	0	558	479	
8	0	0	0	0	509	482	
9	0	0	0	0	489	492	
10	0	0	0	0	483	496	
11	0	0	0	0	472	496	
12	0	0	0	0	480	507	
13	0	0	0	0	545	530	
14	0	0	0	0	515	462	
15	0	0	0	0	475	420	
0	0	0	0	0	480	424	
1	0	0	0	0	498	438	
2	0	0	0	0	536	512	
3	0	0	0	0	509	667	
4	0	0	0	0	482	769	
5	0	0	0	0	494	766	
6	0	0	0	0	485	628	
7	0	0	0	0	485	543	
8	0	0	0	0	545	524	
9	0	0	0	0	563	465	
10	0	0	0	0	493	383	
11	0	0	0	0	441	418	
12	0	0	0	0	448	464	
13	0	0	0	0	455	480	
14	0	0	0	0	444	485	
15	0	0	0	0	443	490	
0	0	0	0	0	493	492	
1	0	0	0	0	526	478	
2	0	0	0	0	551	471	
3	0	0	0	0	561	474	
4	0	0	0	0	575	467	
5	0	0	0	0	518	465	
6	0	0	0	0	536	470	
7	0	0	0	0	555	515	
8	0	0	0	0	557	592	
9	0	0	0	0	529	570	
10	0	0	0	0	486	551	
11	0	0	0	0	461	515	
12	0	0	0	0	451	519	
13	0	0	0	0	448	518	
14	0	0	0	0	487	532	
15	0	0	0	0	492	507	
0	0	0	0	0	513	500	
1	0	0	0	0	558	521	
2	0	0	0	0	568	514	
3	0	0	0	0	545	505	
4	0	0	0	0	480	515	
5	0	0	0	0	403	524	
6	0	0	0	0	447	543	
7	0	0	0	0	528	555	
8	0	0	0	0	541	515	
9	0	0	0	0	537	482	
10	0	0	0	0	543	475	
11	0	0	0	0	531	438	
12	0	0	0	0	473	407	
13	0	0	0	0	413	429	
14	0	0	0	0	428	501	
15	0	0	0	0	409	536	
0	0	0	0	0	396	530	
1	0	0	0	0	469	589	
2	0	0	0	0	520	623	
3	0	0	0	0	556	592	
4	0	0	0	0	561	540	
5	0	0	0	0	608	515	
6	0	0	0	0	687	470	
7	0	0	0	0	602	390	
8	0	0	0	0	543	444	
9	0	0	0	0	604	541	
10	0	0	0	0	551	599	
11	0	0	0	0	491	555	
12	0	0	0	0	483	524	
13	0	0	0	0	493	495	
14	0	0	0	0	497	467	
15	0	0	0	0	471	435	
0	0	0	0	0	454	471	
1	0	0	0	0	440	487	
2	0	0	0	0	444	544	
3	0	0	0	0	468	574	
4	0	0	0	0	482	605	
5	0	0	0	0	490	577	
6	0	0	0	0	508	520	
7	0	0	0	0	520	519	
8	0	0	0	0	519	536	
9	0	0	0	0	515	560	
10	0	0	0	0	522	568	
11	0	0	0	0	510	608	
12	0	0	0	0	508	576	
13	0	0	0	0	549	485	
14	0	0	0	0	515	432	
15	0	0	0	0	496	329	
0	0	0	0	0	471	351	
1	0	0	0	0	450	391	
2	0	0	0	0	499	432	
3	0	0	0	0	533	470	
4	0	0	0	0	495	559	
5	0	0	0	0	445	591	
6	0	0	0	0	472	601	
7	0	0	0	0	524	588	
8	0	0	0	0	536	564	
9	0	0	0	0	548	532	
10	0	0	0	0	572	524	
11	0	0	0	0	577	467	
12	0	0	0	0	487	448	
13	0	0	0	0	434	468	
14	0	0	0	0	401	489	
15	0	0	0	0	436	506	
0	0	0	0	0	468	529	
1	0	0	0	0	496	530	
2	0	0	0	0	503	529	
3	0	0	0	0	500	537	
4	0	0	0	0	546	532	
5	0	0	0	0	569	502	
6	0	0	0	0	531	480	
7	0	0	0	0	483	480	
8	0	0	0	0	492	498	
9	0	0	0	0	489	519	
10	0	0	0	0	516	531	
11	0	0	0	0	556	552	
12	0	0	0	0	531	546	
13	0	0	0	0	524	555	
14	0	0	0	0	527	515	
15	0	0	0	0	532	408	
0	0	0	0	0	474	408	
1	0	0	0	0	448	451	
2	0	0	0	0	490	478	
3	0	0	0	0	523	583	
4	0	0	0	0	554	679	
5	0	0	0	0	529	609	
6	0	0	0	0	495	556	
7	0	0	0	0	467	496	
8	0	0	0	0	483	455	
9	0	0	0	0	536	437	
10	0	0	0	0	519	463	
11	0	0	0	0	524	509	
12	0	0	0	0	544	556	
13	0	0	0	0	514	517	
14	0	0	0	0	512	538	
15	0	0	0	0	481	478	
0	0	0	0	0	449	464	
1	0	0	0	0	489	520	
2	0	0	0	0	504	536	
3	0	0	0	0	492	577	
4	0	0	0	0	496	606	
5	0	0	0	0	532	560	
6	0	0	0	0	542	529	
7	0	0	0	0	509	522	
8	0	0	0	0	504	510	
9	0	0	0	0	478	488	
10	0	0	0	0	465	498	
11	0	0	0	0	476	496	
12	0	0	0	0	467	439	
13	0	0	0	0	477	433	
14	0	0	0	0	482	426	
15	0	0	0	0	472	459	
0	0	0	0	0	514	492	
1	0	0	0	0	561	494	
2	0	0	0	0	596	497	
3	0	0	0	0	603	536	
4	0	0	0	0	563	531	
5	0	0	0	0	531	487	
6	0	0	0	0	512	480	
7	0	0	0	0	473	499	
8	0	0	0	0	424	520	
9	0	0	0	0	456	546	
10	0	0	0	0	526	618	
11	0	0	0	0	534	606	
12	0	0	0	0	508	543	
13	0	0	0	0	501	520	
14	0	0	0	0	470	461	
15	0	0	0	0	409	468	
0	0	0	0	0	460	562	
1	0	0	0	0	531	554	
2	0	0	0	0	558	517	
3	0	0	0	0	524	511	
4	0	0	0	0	465	473	
5	0	0	0	0	363	465	
6	0	0	0	0	395	473	
7	0	0	0	0	425	525	
8	0	0	0	0	485	583	
9	0	0	0	0	561	570	
10	0	0	0	0	654	528	
11	0	0	0	0	641	469	
12	0	0	0	0	609	440	
13	0	0	0	0	567	448	
14	0	0	0	0	547	487	
15	0	0	0	0	568	496	
0	0	0	0	0	510	516	
1	0	0	0	0	493	577	
2	0	0	0	0	542	574	
3	0	0	0	0	511	548	
4	0	0	0	0	489	534	
5	0	0	0	0	513	530	
6	0	0	0	0	483	491	
7	0	0	0	0	405	435	
8	0	0	0	0	384	424	
9	0	0	0	0	436	437	
10	0	0	0	0	492	484	
11	0	0	0	0	501	557	
12	0	0	0	0	548	595	
13	0	0	0	0	588	625	
14	0	0	0	0	558	596	
15	0	0	0	0	522	542	
0	0	0	0	0	505	556	
1	0	0	0	0	474	550	
2	0	0	0	0	480	459	
3	0	0	0	0	503	423	
4	0	0	0	0	455	435	
5	0	0	0	0	419	467	
6	0	0	0	0	446	492	
7	0	0	0	0	504	506	
8	0	0	0	0	519	496	
9	0	0	0	0	507	471	
10	0	0	0	0	529	461	
11	0	0	0	0	519	474	
12	0	0	0	0	504	497	
13	0	0	0	0	510	508	
14	0	0	0	0	539	572	
15	0	0	0	0	585	588	
0	0	0	0	0	585	560	
1	0	0	0	0	584	571	
2	0	0	0	0	568	557	
3	0	0	0	0	502	534	
4	0	0	0	0	460	508	
5	0	0	0	0	446	506	
6	0	0	0	0	444	480	
7	0	0	0	0	432	459	
8	0	0	0	0	401	467	
9	0	0	0	0	423	475	
10	0	0	0	0	469	467	
11	0	0	0	0	530	492	
12	0	0	0	0	580	560	
13	0	0	0	0	606	536	
14	0	0	0	0	558	520	
15	0	0	0	0	478	544	
0	0	0	0	0	454	527	
1	0	0	0	0	455	532	
2	0	0	0	0	472	568	
3	0	0	0	0	507	534	
4	0	0	0	0	501	491	
5	0	0	0	0	531	500	
6	0	0	0	0	557	502	
7	0	0	0	0	555	496	
8	0	0	0	0	543	488	
9	0	0	0	0	507	492	
10	0	0	0	0	480	492	
11	0	0	0	0	491	502	
12	0	0	0	0	492	512	
13	0	0	0	0	500	495	
14	0	0	0	0	487	491	
15	0	0	0	0	480	513	
0	0	0	0	0	480	513	
1	0	0	0	0	496	529	
2	0	0	0	0	487	564	
3	0	0	0	0	518	536	
4	0	0	0	0	541	508	
5	0	0	0	0	595	488	
6	0	0	0	0	614	502	
7	0	0	0	0	583	482	
8	0	0	0	0	536	478	
9	0	0	0	0	464	495	
10	0	0	0	0	424	494	
11	0	0	0	0	441	504	
12	0	0	0	0	465	542	
13	0	0	0	0	482	519	
14	0	0	0	0	489	509	
15	0	0	0	0	493	514	
0	0	0	0	0	454	536	
1	0	0	0	0	451	547	
2	0	0	0	0	508	542	
3	0	0	0	0	575	585	
4	0	0	0	0	608	583	
5	0	0	0	0	631	536	
6	0	0	0	0	595	460	
7	0	0	0	0	524	481	
8	0	0	0	0	425	466	
9	0	0	0	0	342	462	
10	0	0	0	0	374	463	
11	0	0	0	0	448	489	
12	0	0	0	0	483	519	
13	0	0	0	0	518	527	
14	0	0	0	0	514	505	
15	0	0	0	0	494	502	
0	0	0	0	0	497	512	
1	0	0	0	0	542	530	
2	0	0	0	0	585	558	
3	0	0	0	0	632	560	
4	0	0	0	0	652	469	
5	0	0	0	0	608	450	
6	0	0	0	0	479	498	
7	0	0	0	0	333	487	
8	0	0	0	0	332	497	
9	0	0	0	0	451	496	
10	0	0	0	0	518	511	
11	0	0	0	0	561	537	
12	0	0	0	0	550	564	
13	0	0	0	0	558	529	
14	0	0	0	0	519	504	
15	0	0	0	0	446	494	
0	0	0	0	0	419	520	
1	0	0	0	0	412	507	
2	0	0	0	0	452	561	
3	0	0	0	0	531	551	
4	0	0	0	0	591	544	
5	0	0	0	0	575	534	
6	0	0	0	0	516	506	
7	0	0	0	0	497	499	
8	0	0	0	0	545	510	
9	0	0	0	0	513	523	
10	0	0	0	0	427	507	
11	0	0	0	0	426	468	
12	0	0	0	0	456	432	
13	0	0	0	0	524	429	
14	0	0	0	0	559	430	
15	0	0	0	0	552	451	
0	0	0	0	0	553	514	
1	0	0	0	0	526	568	
2	0	0	0	0	535	555	
3	0	0	0	0	523	615	
4	0	0	0	0	512	603	
5	0	0	0	0	515	542	
6	0	0	0	0	504	510	
7	0	0	0	0	495	510	
8	0	0	0	0	499	511	
9	0	0	0	0	511	523	
10	0	0	0	0	510	521	
11	0	0	0	0	508	499	
12	0	0	0	0	512	490	
13	0	0	0	0	539	491	
14	0	0	0	0	549	505	
15	0	0	0	0	531	518	
0	0	0	0	0	493	504	
1	0	0	0	0	459	505	
2	0	0	0	0	454	506	
3	0	0	0	0	433	504	
4	0	0	0	0	446	484	
5	0	0	0	0	488	495	
6	0	0	0	0	505	503	
7	0	0	0	0	520	557	
8	0	0	0	0	511	544	
9	0	0	0	0	507	530	
10	0	0	0	0	499	495	
11	0	0	0	0	511	487	
12	0	0	0	0	531	499	
13	0	0	0	0	547	522	
14	0	0	0	0	544	540	
15	0	0	0	0	524	543	
0	0	0	0	0	513	502	
1	0	0	0	0	507	471	
2	0	0	0	0	497	487	
3	0	0	0	0	487	498	
4	0	0	0	0	486	492	
5	0	0	0	0	479	501	
6	0	0	0	0	465	509	
7	0	0	0	0	479	524	
8	0	0	0	0	505	528	
9	0	0	0	0	520	529	
10	0	0	0	0	512	512	
11	0	0	0	0	504	469	
12	0	0	0	0	538	467	
13	0	0	0	0	507	465	
14	0	0	0	0	475	481	
15	0	0	0	0	492	487	
0	0	0	0	0	473	517	
1	0	0	0	0	482	547	
2	0	0	0	0	499	542	
3	0	0	0	0	513	523	
4	0	0	0	0	520	526	
5	0	0	0	0	553	587	
6	0	0	0	0	591	604	
7	0	0	0	0	551	566	
8	0	0	0	0	494	516	
9	0	0	0	0	459	438	
10	0	0	0	0	476	420	
11	0	0	0	0	487	443	
12	0	0	0	0	504	492	
13	0	0	0	0	537	575	
14	0	0	0	0	537	606	
15	0	0	0	0	506	569	
0	0	0	0	0	462	549	
1	0	0	0	0	464	541	
2	0	0	0	0	505	528	
3	0	0	0	0	539	504	
4	0	0	0	0	515	496	
5	0	0	0	0	510	476	
6	0	0	0	0	526	472	
7	0	0	0	0	512	488	
8	0	0	0	0	502	502	
9	0	0	0	0	505	504	
10	0	0	0	0	492	507	
11	0	0	0	0	490	513	
12	0	0	0	0	507	520	
13	0	0	0	0	509	510	
14	0	0	0	0	514	499	
15	0	0	0	0	524	488	
0	0	0	0	0	508	449	
1	0	0	0	0	509	434	
2	0	0	0	0	476	450	
3	0	0	0	0	439	499	
4	0	0	0	0	431	539	
5	0	0	0	0	468	581	
6	0	0	0	0	524	603	
7	0	0	0	0	579	556	
8	0	0	0	0	583	561	
9	0	0	0	0	594	589	
10	0	0	0	0	608	542	
11	0	0	0	0	530	452	
12	0	0	0	0	426	448	
13	0	0	0	0	444	455	
14	0	0	0	0	470	470	
15	0	0	0	0	485	485	
0	0	0	0	0	444	499	
1	0	0	0	0	455	504	
2	0	0	0	0	509	523	
3	0	0	0	0	533	536	
4	0	0	0	0	505	515	
5	0	0	0	0	487	495	
6	0	0	0	0	494	482	
7	0	0	0	0	516	481	
8	0	0	0	0	524	517	
9	0	0	0	0	517	545	
10	0	0	0	0	505	547	
11	0	0	0	0	512	568	
12	0	0	0	0	519	529	
13	0	0	0	0	514	487	
14	0	0	0	0	515	483	
15	0	0	0	0	507	503	
0	0	0	0	0	489	504	
1	0	0	0	0	480	520	
2	0	0	0	0	505	559	
3	0	0	0	0	532	557	
4	0	0	0	0	532	525	
5	0	0	0	0	550	515	
6	0	0	0	0	547	502	
7	0	0	0	0	526	492	
8	0	0	0	0	500	518	
9	0	0	0	0	502	540	
10	0	0	0	0	487	525	
11	0	0	0	0	460	527	
12	0	0	0	0	450	502	
13	0	0	0	0	471	500	
14	0	0	0	0	488	499	
15	0	0	0	0	499	500	
0	0	0	0	0	525	497	
1	0	0	0	0	525	498	
2	0	0	0	0	519	511	
3	0	0	0	0	519	519	
4	0	0	0	0	504	531	
5	0	0	0	0	471	521	
6	0	0	0	0	460	529	
7	0	0	0	0	472	526	
8	0	0	0	0	511	513	
9	0	0	0	0	529	497	
10	0	0	0	0	560	484	
11	0	0	0	0	571	479	
12	0	0	0	0	547	494	
13	0	0	0	0	536	476	
14	0	0	0	0	508	485	
15	0	0	0	0	490	504	
0	0	0	0	0	473	491	
1	0	0	0	0	435	478	
2	0	0	0	0	440	447	
3	0	0	0	0	455	406	
4	0	0	0	0	496	440	
5	0	0	0	0	538	509	
6	0	0	0	0	547	579	
7	0	0	0	0	547	671	
8	0	0	0	0	543	683	
9	0	0	0	0	487	610	
10	0	0	0	0	453	574	
11	0	0	0	0	478	555	
12	0	0	0	0	527	545	
13	0	0	0	0	532	515	
14	0	0	0	0	546	487	
15	0	0	0	0	578	461	
0	0	0	0	0	507	431	
1	0	0	0	0	439	430	
2	0	0	0	0	456	468	
3	0	0	0	0	498	494	
4	0	0	0	0	507	500	
5	0	0	0	0	498	491	
6	0	0	0	0	493	492	
7	0	0	0	0	501	519	
8	0	0	0	0	483	506	
9	0	0	0	0	479	481	
10	0	0	0	0	499	464	
11	0	0	0	0	532	455	
12	0	0	0	0	527	516	
13	0	0	0	0	548	637	
14	0	0	0	0	546	651	
15	0	0	0	0	515	585	
0	0	0	0	0	497	535	
1	0	0	0	0	483	484	
2	0	0	0	0	489	467	
3	0	0	0	0	495	483	
4	0	0	0	0	500	483	
5	0	0	0	0	505	476	
6	0	0	0	0	490	472	
7	0	0	0	0	487	502	
8	0	0	0	0	521	530	
9	0	0	0	0	502	532	
10	0	0	0	0	489	542	
11	0	0	0	0	522	543	
12	0	0	0	0	538	541	
13	0	0	0	0	573	530	
14	0	0	0	0	523	502	
15	0	0	0	0	519	492	
0	0	0	0	0	519	507	
1	0	0	0	0	539	517	
2	0	0	0	0	501	475	
3	0	0	0	0	477	448	
4	0	0	0	0	471	461	
5	0	0	0	0	455	487	
6	0	0	0	0	435	532	
7	0	0	0	0	440	588	
8	0	0	0	0	440	560	
9	0	0	0	0	467	519	
10	0	0	0	0	535	544	
11	0	0	0	0	574	493	
12	0	0	0	0	609	501	
13	0	0	0	0	600	495	
14	0	0	0	0	565	500	
15	0	0	0	0	524	518	
0	0	0	0	0	483	517	
1	0	0	0	0	454	507	
2	0	0	0	0	467	523	
3	0	0	0	0	487	519	
4	0	0	0	0	504	504	
5	0	0	0	0	549	489	
6	0	0	0	0	554	477	
7	0	0	0	0	527	504	
8	0	0	0	0	464	504	
9	0	0	0	0	404	524	
10	0	0	0	0	420	543	
11	0	0	0	0	428	561	
12	0	0	0	0	457	550	
13	0	0	0	0	508	515	
14	0	0	0	0	556	488	
15	0	0	0	0	586	512	
0	0	0	0	0	544	513	
1	0	0	0	0	511	478	
2	0	0	0	0	496	480	
3	0	0	0	0	485	483	
4	0	0	0	0	503	494	
5	0	0	0	0	507	480	
6	0	0	0	0	499	493	
7	0	0	0	0	496	534	
8	0	0	0	0	492	555	
9	0	0	0	0	521	531	
10	0	0	0	0	542	489	
11	0	0	0	0	519	463	
12	0	0	0	0	517	467	
13	0	0	0	0	516	473	
14	0	0	0	0	540	536	
15	0	0	0	0	524	590	
0	0	0	0	0	525	551	
1	0	0	0	0	504	528	
2	0	0	0	0	426	507	
3	0	0	0	0	423	483	
4	0	0	0	0	473	556	
5	0	0	0	0	515	609	
6	0	0	0	0	515	559	
7	0	0	0	0	537	485	
8	0	0	0	0	538	477	
9	0	0	0	0	527	492	
10	0	0	0	0	526	508	
11	0	0	0	0	524	519	
12	0	0	0	0	509	529	
13	0	0	0	0	502	504	
14	0	0	0	0	502	475	
15	0	0	0	0	482	486	
0	0	0	0	0	488	493	
1	0	0	0	0	500	502	
2	0	0	0	0	473	512	
3	0	0	0	0	504	499	
4	0	0	0	0	523	516	
5	0	0	0	0	512	505	
6	0	0	0	0	511	504	
7	0	0	0	0	511	539	
8	0	0	0	0	502	520	
9	0	0	0	0	528	498	
10	0	0	0	0	543	499	
11	0	0	0	0	528	507	
12	0	0	0	0	512	497	
13	0	0	0	0	512	470	
14	0	0	0	0	467	464	
15	0	0	0	0	433	484	
0	0	0	0	0	496	549	
1	0	0	0	0	536	620	
2	0	0	0	0	521	630	
3	0	0	0	0	495	573	
4	0	0	0	0	490	546	
5	0	0	0	0	511	537	
6	0	0	0	0	519	497	
7	0	0	0	0	500	468	
8	0	0	0	0	497	445	
9	0	0	0	0	484	435	
10	0	0	0	0	480	453	
11	0	0	0	0	465	463	
12	0	0	0	0	465	443	
13	0	0	0	0	493	452	
14	0	0	0	0	510	508	
15	0	0	0	0	540	568	
0	0	0	0	0	542	582	
1	0	0	0	0	567	551	
2	0	0	0	0	559	530	
3	0	0	0	0	502	500	
