# OpenSignals Text File Format. Version 1
# {"98:D3:71:FE:38:C0": {"position": 0, "device": "bitalino_rev", "device name": "98:D3:71:FE:38:C0", "device connection": "BTH98:D3:71:FE:38:C0", "sampling rate": 1000, "resolution": [4, 1, 1, 1, 1, 10, 10], "firmware version": 1282, "comments": "", "keywords": "", "mode": 0, "sync interval": 2, "date": "2026-6-12", "time": "13:8:42.931", "channels": [1, 2], "sensor": ["EMGBITREV", "EMGBITREV"], "label": ["A1", "A2"], "column": ["nSeq", "I1", "I2", "O1", "O2", "A1", "A2"], "special": [{}, {}], "digital IO": [0, 0, 1, 1]}}
# EndOfHeader
0	0	0	0	0	505	510	
1	0	0	0	0	504	508	
2	0	0	0	0	506	512	
3	0	0	0	0	504	515	
4	0	0	0	0	505	519	
5	0	0	0	0	505	518	
6	0	0	0	0	505	516	
7	0	0	0	0	504	512	
8	0	0	0	0	504	508	
9	0	0	0	0	504	510	
10	0	0	0	0	507	512	
11	0	0	0	0	505	511	
12	0	0	0	0	505	507	
13	0	0	0	0	507	508	
14	0	0	0	0	507	510	
15	0	0	0	0	507	510	
0	0	0	0	0	509	511	
1	0	0	0	0	508	513	
2	0	0	0	0	507	512	
3	0	0	0	0	504	511	
4	0	0	0	0	504	510	
5	0	0	0	0	505	511	
6	0	0	0	0	505	511	
7	0	0	0	0	502	515	
8	0	0	0	0	502	514	
9	0	0	0	0	505	512	
10	0	0	0	0	506	511	
11	0	0	0	0	507	511	
12	0	0	0	0	505	519	
13	0	0	0	0	506	515	
14	0	0	0	0	507	513	
15	0	0	0	0	506	508	
0	0	0	0	0	507	506	
1	0	0	0	0	506	507	
2	0	0	0	0	506	514	
3	0	0	0	0	504	515	
4	0	0	0	0	505	511	
5	0	0	0	0	508	509	
6	0	0	0	0	507	510	
7	0	0	0	0	505	509	
8	0	0	0	0	507	511	
9	0	0	0	0	505	512	
10	0	0	0	0	505	519	
11	0	0	0	0	506	515	
12	0	0	0	0	504	511	
13	0	0	0	0	505	509	
14	0	0	0	0	506	516	
15	0	0	0	0	505	517	
0	0	0	0	0	504	510	
1	0	0	0	0	503	508	
2	0	0	0	0	504	510	
3	0	0	0	0	504	511	
4	0	0	0	0	505	515	
5	0	0	0	0	505	516	
6	0	0	0	0	507	515	
7	0	0	0	0	506	513	
8	0	0	0	0	503	509	
9	0	0	0	0	506	508	
10	0	0	0	0	505	510	
11	0	0	0	0	506	510	
12	0	0	0	0	507	507	
13	0	0	0	0	506	504	
14	0	0	0	0	507	508	
15	0	0	0	0	508	509	
0	0	0	0	0	510	509	
1	0	0	0	0	507	511	
2	0	0	0	0	505	514	
3	0	0	0	0	505	517	
4	0	0	0	0	503	521	
5	0	0	0	0	503	526	
6	0	0	0	0	503	523	
7	0	0	0	0	502	517	
8	0	0	0	0	504	511	
9	0	0	0	0	503	507	
10	0	0	0	0	505	507	
11	0	0	0	0	507	507	
12	0	0	0	0	505	512	
13	0	0	0	0	506	512	
14	0	0	0	0	505	513	
15	0	0	0	0	505	511	
0	0	0	0	0	506	510	
1	0	0	0	0	508	511	
2	0	0	0	0	507	513	
3	0	0	0	0	504	513	
4	0	0	0	0	505	513	
5	0	0	0	0	504	510	
6	0	0	0	0	505	510	
7	0	0	0	0	504	508	
8	0	0	0	0	505	511	
9	0	0	0	0	507	510	
10	0	0	0	0	507	509	
11	0	0	0	0	506	507	
12	0	0	0	0	506	508	
13	0	0	0	0	507	510	
14	0	0	0	0	506	515	
15	0	0	0	0	505	511	
0	0	0	0	0	506	511	
1	0	0	0	0	506	513	
2	0	0	0	0	502	520	
3	0	0	0	0	506	521	
4	0	0	0	0	506	526	
5	0	0	0	0	505	519	
6	0	0	0	0	507	515	
7	0	0	0	0	504	509	
8	0	0	0	0	505	510	
9	0	0	0	0	504	511	
10	0	0	0	0	504	510	
11	0	0	0	0	504	507	
12	0	0	0	0	509	508	
13	0	0	0	0	507	508	
14	0	0	0	0	507	508	
15	0	0	0	0	505	510	
0	0	0	0	0	504	508	
1	0	0	0	0	506	510	
2	0	0	0	0	505	512	
3	0	0	0	0	506	516	
4	0	0	0	0	504	518	
5	0	0	0	0	502	518	
6	0	0	0	0	504	508	
7	0	0	0	0	508	510	
8	0	0	0	0	508	515	
9	0	0	0	0	510	514	
10	0	0	0	0	507	513	
11	0	0	0	0	504	513	
12	0	0	0	0	504	511	
13	0	0	0	0	504	509	
14	0	0	0	0	506	508	
15	0	0	0	0	507	506	
0	0	0	0	0	506	509	
1	0	0	0	0	504	514	
2	0	0	0	0	504	512	
3	0	0	0	0	505	511	
4	0	0	0	0	505	513	
5	0	0	0	0	505	510	
6	0	0	0	0	506	511	
7	0	0	0	0	503	509	
8	0	0	0	0	506	508	
9	0	0	0	0	508	506	
10	0	0	0	0	503	505	
11	0	0	0	0	506	509	
12	0	0	0	0	505	512	
13	0	0	0	0	507	514	
14	0	0	0	0	506	523	
15	0	0	0	0	506	526	
0	0	0	0	0	506	518	
1	0	0	0	0	505	517	
2	0	0	0	0	504	527	
3	0	0	0	0	507	524	
4	0	0	0	0	507	513	
5	0	0	0	0	505	507	
6	0	0	0	0	508	502	
7	0	0	0	0	510	502	
8	0	0	0	0	505	508	
9	0	0	0	0	507	514	
10	0	0	0	0	505	510	
11	0	0	0	0	503	508	
12	0	0	0	0	502	508	
13	0	0	0	0	503	510	
14	0	0	0	0	505	512	
15	0	0	0	0	504	508	
0	0	0	0	0	505	510	
1	0	0	0	0	506	512	
2	0	0	0	0	504	515	
3	0	0	0	0	504	515	
4	0	0	0	0	505	515	
5	0	0	0	0	505	510	
6	0	0	0	0	507	509	
7	0	0	0	0	508	508	
8	0	0	0	0	507	510	
9	0	0	0	0	508	510	
10	0	0	0	0	507	511	
11	0	0	0	0	505	515	
12	0	0	0	0	504	518	
13	0	0	0	0	504	514	
14	0	0	0	0	504	512	
15	0	0	0	0	506	512	
0	0	0	0	0	504	511	
1	0	0	0	0	506	510	
2	0	0	0	0	505	511	
3	0	0	0	0	507	510	
4	0	0	0	0	508	511	
5	0	0	0	0	505	513	
6	0	0	0	0	505	514	
7	0	0	0	0	504	513	
8	0	0	0	0	504	513	
9	0	0	0	0	506	512	
10	0	0	0	0	507	512	
11	0	0	0	0	508	511	
12	0	0	0	0	507	504	
13	0	0	0	0	505	498	
14	0	0	0	0	504	499	
15	0	0	0	0	504	499	
0	0	0	0	0	504	502	
1	0	0	0	0	504	508	
2	0	0	0	0	504	514	
3	0	0	0	0	505	518	
4	0	0	0	0	507	521	
5	0	0	0	0	507	535	
6	0	0	0	0	505	540	
7	0	0	0	0	507	535	
8	0	0	0	0	507	533	
9	0	0	0	0	506	518	
10	0	0	0	0	505	506	
11	0	0	0	0	505	499	
12	0	0	0	0	509	503	
13	0	0	0	0	506	506	
14	0	0	0	0	508	505	
15	0	0	0	0	507	511	
0	0	0	0	0	506	510	
1	0	0	0	0	504	508	
2	0	0	0	0	506	510	
3	0	0	0	0	504	512	
4	0	0	0	0	504	509	
5	0	0	0	0	502	510	
6	0	0	0	0	501	511	
7	0	0	0	0	504	510	
8	0	0	0	0	505	512	
9	0	0	0	0	504	511	
10	0	0	0	0	503	512	
11	0	0	0	0	505	511	
12	0	0	0	0	508	505	
13	0	0	0	0	507	509	
14	0	0	0	0	507	509	
15	0	0	0	0	504	512	
0	0	0	0	0	505	511	
1	0	0	0	0	507	509	
2	0	0	0	0	507	511	
3	0	0	0	0	505	513	
4	0	0	0	0	505	513	
5	0	0	0	0	506	513	
6	0	0	0	0	506	516	
7	0	0	0	0	507	515	
8	0	0	0	0	505	513	
9	0	0	0	0	505	513	
10	0	0	0	0	504	515	
11	0	0	0	0	503	512	
12	0	0	0	0	507	513	
13	0	0	0	0	506	511	
14	0	0	0	0	508	513	
15	0	0	0	0	508	510	
0	0	0	0	0	505	506	
1	0	0	0	0	504	506	
2	0	0	0	0	504	509	
3	0	0	0	0	503	513	
4	0	0	0	0	503	513	
5	0	0	0	0	503	513	
6	0	0	0	0	504	514	
7	0	0	0	0	504	509	
8	0	0	0	0	508	509	
9	0	0	0	0	507	512	
10	0	0	0	0	507	515	
11	0	0	0	0	507	515	
12	0	0	0	0	508	515	
13	0	0	0	0	507	513	
14	0	0	0	0	507	514	
15	0	0	0	0	504	516	
0	0	0	0	0	504	513	
1	0	0	0	0	505	510	
2	0	0	0	0	507	508	
3	0	0	0	0	504	511	
4	0	0	0	0	507	511	
5	0	0	0	0	505	508	
6	0	0	0	0	504	509	
7	0	0	0	0	505	511	
8	0	0	0	0	504	512	
9	0	0	0	0	504	512	
10	0	0	0	0	505	508	
11	0	0	0	0	506	505	
12	0	0	0	0	507	510	
13	0	0	0	0	506	512	
14	0	0	0	0	505	511	
15	0	0	0	0	506	518	
0	0	0	0	0	505	519	
1	0	0	0	0	505	521	
2	0	0	0	0	507	517	
3	0	0	0	0	507	513	
4	0	0	0	0	505	510	
5	0	0	0	0	505	511	
6	0	0	0	0	507	512	
7	0	0	0	0	504	508	
8	0	0	0	0	504	507	
9	0	0	0	0	507	508	
10	0	0	0	0	507	508	
11	0	0	0	0	507	515	
12	0	0	0	0	507	515	
13	0	0	0	0	505	512	
14	0	0	0	0	507	512	
15	0	0	0	0	505	509	
0	0	0	0	0	505	521	
1	0	0	0	0	505	523	
2	0	0	0	0	507	520	
3	0	0	0	0	507	514	
4	0	0	0	0	502	508	
5	0	0	0	0	504	506	
6	0	0	0	0	507	504	
7	0	0	0	0	504	502	
8	0	0	0	0	502	504	
9	0	0	0	0	505	504	
10	0	0	0	0	505	509	
11	0	0	0	0	506	508	
12	0	0	0	0	507	507	
13	0	0	0	0	507	512	
14	0	0	0	0	506	518	
15	0	0	0	0	505	520	
0	0	0	0	0	505	520	
1	0	0	0	0	505	518	
2	0	0	0	0	507	515	
3	0	0	0	0	507	508	
4	0	0	0	0	504	505	
5	0	0	0	0	507	506	
6	0	0	0	0	504	508	
7	0	0	0	0	505	512	
8	0	0	0	0	507	516	
9	0	0	0	0	504	515	
10	0	0	0	0	504	522	
11	0	0	0	0	505	518	
12	0	0	0	0	504	521	
13	0	0	0	0	506	516	
14	0	0	0	0	508	516	
15	0	0	0	0	506	508	
0	0	0	0	0	506	507	
1	0	0	0	0	504	512	
2	0	0	0	0	505	512	
3	0	0	0	0	502	512	
4	0	0	0	0	504	508	
5	0	0	0	0	510	507	
6	0	0	0	0	510	510	
7	0	0	0	0	508	513	
8	0	0	0	0	509	510	
9	0	0	0	0	505	502	
10	0	0	0	0	504	502	
11	0	0	0	0	499	508	
12	0	0	0	0	504	515	
13	0	0	0	0	502	514	
14	0	0	0	0	499	513	
15	0	0	0	0	504	511	
0	0	0	0	0	504	512	
1	0	0	0	0	505	514	
2	0	0	0	0	503	513	
3	0	0	0	0	505	511	
4	0	0	0	0	507	515	
5	0	0	0	0	504	512	
6	0	0	0	0	505	514	
7	0	0	0	0	505	510	
8	0	0	0	0	507	511	
9	0	0	0	0	508	512	
10	0	0	0	0	507	512	
11	0	0	0	0	507	513	
12	0	0	0	0	507	513	
13	0	0	0	0	507	513	
14	0	0	0	0	507	511	
15	0	0	0	0	505	510	
0	0	0	0	0	508	511	
1	0	0	0	0	505	511	
2	0	0	0	0	506	514	
3	0	0	0	0	505	512	
4	0	0	0	0	505	511	
5	0	0	0	0	504	515	
6	0	0	0	0	504	511	
7	0	0	0	0	507	510	
8	0	0	0	0	505	511	
9	0	0	0	0	505	519	
10	0	0	0	0	504	516	
11	0	0	0	0	505	511	
12	0	0	0	0	504	511	
13	0	0	0	0	505	513	
14	0	0	0	0	507	514	
15	0	0	0	0	504	513	
0	0	0	0	0	506	509	
1	0	0	0	0	507	510	
2	0	0	0	0	504	508	
3	0	0	0	0	505	509	
4	0	0	0	0	505	510	
5	0	0	0	0	506	511	
6	0	0	0	0	506	512	
7	0	0	0	0	505	512	
8	0	0	0	0	505	515	
9	0	0	0	0	505	516	
10	0	0	0	0	505	513	
11	0	0	0	0	506	509	
12	0	0	0	0	505	509	
13	0	0	0	0	507	508	
14	0	0	0	0	507	509	
15	0	0	0	0	505	505	
0	0	0	0	0	504	509	
1	0	0	0	0	505	511	
2	0	0	0	0	504	510	
3	0	0	0	0	505	516	
4	0	0	0	0	504	519	
5	0	0	0	0	506	518	
6	0	0	0	0	504	514	
7	0	0	0	0	508	515	
8	0	0	0	0	504	520	
9	0	0	0	0	507	524	
10	0	0	0	0	506	515	
11	0	0	0	0	508	513	
12	0	0	0	0	505	508	
13	0	0	0	0	504	510	
14	0	0	0	0	505	505	
15	0	0	0	0	507	506	
0	0	0	0	0	508	509	
1	0	0	0	0	504	512	
2	0	0	0	0	506	513	
3	0	0	0	0	505	512	
4	0	0	0	0	505	513	
5	0	0	0	0	506	510	
6	0	0	0	0	504	510	
7	0	0	0	0	505	508	
8	0	0	0	0	505	508	
9	0	0	0	0	505	508	
10	0	0	0	0	504	505	
11	0	0	0	0	505	509	
12	0	0	0	0	504	508	
13	0	0	0	0	504	510	
14	0	0	0	0	505	515	
15	0	0	0	0	506	510	
0	0	0	0	0	507	509	
1	0	0	0	0	504	511	
2	0	0	0	0	505	520	
3	0	0	0	0	503	515	
4	0	0	0	0	506	507	
5	0	0	0	0	505	511	
6	0	0	0	0	505	518	
7	0	0	0	0	508	515	
8	0	0	0	0	507	519	
9	0	0	0	0	507	522	
10	0	0	0	0	507	519	
11	0	0	0	0	507	519	
12	0	0	0	0	505	515	
13	0	0	0	0	506	511	
14	0	0	0	0	507	509	
15	0	0	0	0	508	506	
0	0	0	0	0	505	507	
1	0	0	0	0	504	507	
2	0	0	0	0	502	508	
3	0	0	0	0	503	510	
4	0	0	0	0	503	510	
5	0	0	0	0	506	508	
6	0	0	0	0	505	506	
7	0	0	0	0	507	509	
8	0	0	0	0	507	510	
9	0	0	0	0	508	508	
10	0	0	0	0	503	510	
11	0	0	0	0	502	514	
12	0	0	0	0	503	513	
13	0	0	0	0	505	515	
14	0	0	0	0	508	513	
15	0	0	0	0	505	513	
0	0	0	0	0	506	512	
1	0	0	0	0	506	512	
2	0	0	0	0	506	510	
3	0	0	0	0	505	512	
4	0	0	0	0	505	513	
5	0	0	0	0	506	512	
6	0	0	0	0	505	512	
7	0	0	0	0	507	512	
8	0	0	0	0	505	511	
9	0	0	0	0	505	511	
10	0	0	0	0	504	513	
11	0	0	0	0	505	515	
12	0	0	0	0	505	512	
13	0	0	0	0	506	512	
14	0	0	0	0	506	513	
15	0	0	0	0	508	513	
0	0	0	0	0	507	511	
1	0	0	0	0	506	511	
2	0	0	0	0	504	511	
3	0	0	0	0	506	513	
4	0	0	0	0	506	510	
5	0	0	0	0	505	512	
6	0	0	0	0	507	514	
7	0	0	0	0	506	511	
8	0	0	0	0	507	510	
9	0	0	0	0	505	511	
10	0	0	0	0	506	511	
11	0	0	0	0	505	509	
12	0	0	0	0	506	508	
13	0	0	0	0	504	510	
14	0	0	0	0	506	507	
15	0	0	0	0	504	506	
0	0	0	0	0	505	508	
1	0	0	0	0	505	509	
2	0	0	0	0	507	508	
3	0	0	0	0	505	511	
4	0	0	0	0	506	521	
5	0	0	0	0	503	519	
6	0	0	0	0	504	520	
7	0	0	0	0	504	519	
8	0	0	0	0	505	518	
9	0	0	0	0	505	514	
10	0	0	0	0	505	519	
11	0	0	0	0	504	515	
12	0	0	0	0	504	516	
13	0	0	0	0	505	516	
14	0	0	0	0	506	512	
15	0	0	0	0	505	508	
0	0	0	0	0	506	508	
1	0	0	0	0	506	508	
2	0	0	0	0	505	509	
3	0	0	0	0	505	509	
4	0	0	0	0	504	510	
5	0	0	0	0	505	515	
6	0	0	0	0	506	510	
7	0	0	0	0	504	508	
8	0	0	0	0	504	508	
9	0	0	0	0	504	511	
10	0	0	0	0	505	508	
11	0	0	0	0	505	509	
12	0	0	0	0	506	507	
13	0	0	0	0	504	512	
14	0	0	0	0	506	512	
15	0	0	0	0	505	515	
0	0	0	0	0	506	511	
1	0	0	0	0	507	519	
2	0	0	0	0	507	517	
3	0	0	0	0	506	510	
4	0	0	0	0	505	510	
5	0	0	0	0	507	511	
6	0	0	0	0	508	510	
7	0	0	0	0	505	514	
8	0	0	0	0	505	515	
9	0	0	0	0	505	513	
10	0	0	0	0	507	511	
11	0	0	0	0	506	512	
12	0	0	0	0	507	512	
13	0	0	0	0	505	512	
14	0	0	0	0	505	515	
15	0	0	0	0	503	515	
0	0	0	0	0	504	512	
1	0	0	0	0	503	508	
2	0	0	0	0	504	508	
3	0	0	0	0	505	507	
4	0	0	0	0	505	510	
5	0	0	0	0	509	506	
6	0	0	0	0	507	503	
7	0	0	0	0	508	504	
8	0	0	0	0	508	507	
9	0	0	0	0	507	508	
10	0	0	0	0	504	505	
11	0	0	0	0	503	512	
12	0	0	0	0	501	513	
13	0	0	0	0	504	519	
14	0	0	0	0	505	525	
15	0	0	0	0	504	531	
0	0	0	0	0	505	532	
1	0	0	0	0	504	526	
2	0	0	0	0	507	515	
3	0	0	0	0	507	511	
4	0	0	0	0	507	512	
5	0	0	0	0	507	505	
6	0	0	0	0	508	509	
7	0	0	0	0	507	509	
8	0	0	0	0	505	510	
9	0	0	0	0	504	513	
10	0	0	0	0	504	514	
11	0	0	0	0	503	511	
12	0	0	0	0	505	504	
13	0	0	0	0	505	505	
14	0	0	0	0	504	502	
15	0	0	0	0	507	500	
0	0	0	0	0	508	505	
1	0	0	0	0	512	506	
2	0	0	0	0	511	508	
3	0	0	0	0	506	508	
4	0	0	0	0	501	508	
5	0	0	0	0	504	510	
6	0	0	0	0	506	514	
7	0	0	0	0	503	518	
8	0	0	0	0	503	513	
9	0	0	0	0	504	515	
10	0	0	0	0	504	511	
11	0	0	0	0	505	512	
12	0	0	0	0	506	515	
13	0	0	0	0	504	518	
14	0	0	0	0	509	515	
15	0	0	0	0	507	518	
0	0	0	0	0	504	528	
1	0	0	0	0	504	513	
2	0	0	0	0	505	515	
3	0	0	0	0	504	511	
4	0	0	0	0	504	503	
5	0	0	0	0	505	504	
6	0	0	0	0	505	507	
7	0	0	0	0	503	508	
8	0	0	0	0	508	513	
9	0	0	0	0	506	520	
10	0	0	0	0	508	526	
11	0	0	0	0	505	514	
12	0	0	0	0	505	509	
13	0	0	0	0	505	505	
14	0	0	0	0	505	508	
15	0	0	0	0	504	511	
0	0	0	0	0	506	513	
1	0	0	0	0	505	513	
2	0	0	0	0	505	511	
3	0	0	0	0	505	513	
4	0	0	0	0	505	515	
5	0	0	0	0	504	511	
6	0	0	0	0	506	510	
7	0	0	0	0	507	509	
8	0	0	0	0	507	511	
9	0	0	0	0	504	511	
10	0	0	0	0	505	511	
11	0	0	0	0	506	510	
12	0	0	0	0	505	506	
13	0	0	0	0	505	507	
14	0	0	0	0	504	508	
15	0	0	0	0	505	511	
0	0	0	0	0	505	510	
1	0	0	0	0	506	508	
2	0	0	0	0	506	517	
3	0	0	0	0	507	515	
4	0	0	0	0	506	517	
5	0	0	0	0	504	516	
6	0	0	0	0	506	512	
7	0	0	0	0	504	515	
8	0	0	0	0	504	516	
9	0	0	0	0	503	512	
10	0	0	0	0	506	507	
11	0	0	0	0	504	516	
12	0	0	0	0	506	518	
13	0	0	0	0	507	513	
14	0	0	0	0	508	510	
15	0	0	0	0	508	508	
0	0	0	0	0	507	507	
1	0	0	0	0	506	512	
2	0	0	0	0	506	516	
3	0	0	0	0	505	515	
4	0	0	0	0	503	515	
5	0	0	0	0	503	511	
6	0	0	0	0	503	508	
7	0	0	0	0	504	509	
8	0	0	0	0	503	509	
9	0	0	0	0	504	512	
10	0	0	0	0	506	511	
11	0	0	0	0	508	513	
12	0	0	0	0	507	509	
13	0	0	0	0	507	508	
14	0	0	0	0	506	509	
15	0	0	0	0	504	510	
0	0	0	0	0	506	515	
1	0	0	0	0	507	512	
2	0	0	0	0	506	508	
3	0	0	0	0	505	506	
4	0	0	0	0	508	513	
5	0	0	0	0	507	519	
6	0	0	0	0	507	519	
7	0	0	0	0	504	514	
8	0	0	0	0	505	508	
9	0	0	0	0	504	505	
10	0	0	0	0	505	503	
11	0	0	0	0	504	502	
12	0	0	0	0	506	507	
13	0	0	0	0	504	509	
14	0	0	0	0	504	514	
15	0	0	0	0	507	516	
0	0	0	0	0	507	519	
1	0	0	0	0	509	525	
2	0	0	0	0	507	528	
3	0	0	0	0	505	524	
4	0	0	0	0	506	520	
5	0	0	0	0	505	512	
6	0	0	0	0	504	509	
7	0	0	0	0	504	506	
8	0	0	0	0	505	505	
9	0	0	0	0	506	507	
10	0	0	0	0	506	508	
11	0	0	0	0	505	509	
12	0	0	0	0	506	508	
13	0	0	0	0	505	510	
14	0	0	0	0	505	515	
15	0	0	0	0	507	512	
0	0	0	0	0	507	511	
1	0	0	0	0	505	509	
2	0	0	0	0	507	509	
3	0	0	0	0	505	509	
4	0	0	0	0	505	507	
5	0	0	0	0	507	510	
6	0	0	0	0	505	513	
7	0	0	0	0	505	511	
8	0	0	0	0	504	511	
9	0	0	0	0	506	515	
10	0	0	0	0	506	517	
11	0	0	0	0	503	515	
12	0	0	0	0	505	512	
13	0	0	0	0	507	512	
14	0	0	0	0	505	512	
15	0	0	0	0	508	515	
0	0	0	0	0	506	512	
1	0	0	0	0	504	513	
2	0	0	0	0	507	513	
3	0	0	0	0	505	513	
4	0	0	0	0	507	514	
5	0	0	0	0	504	509	
6	0	0	0	0	506	513	
7	0	0	0	0	505	515	
8	0	0	0	0	505	517	
9	0	0	0	0	509	512	
10	0	0	0	0	505	512	
11	0	0	0	0	504	511	
12	0	0	0	0	503	513	
13	0	0	0	0	502	514	
14	0	0	0	0	507	511	
15	0	0	0	0	504	507	
0	0	0	0	0	505	504	
1	0	0	0	0	507	506	
2	0	0	0	0	505	504	
3	0	0	0	0	504	505	
4	0	0	0	0	507	508	
5	0	0	0	0	505	515	
6	0	0	0	0	504	521	
7	0	0	0	0	507	519	
8	0	0	0	0	506	516	
9	0	0	0	0	507	507	
10	0	0	0	0	505	500	
11	0	0	0	0	508	500	
12	0	0	0	0	507	500	
13	0	0	0	0	507	504	
14	0	0	0	0	506	510	
15	0	0	0	0	505	511	
0	0	0	0	0	501	516	
1	0	0	0	0	504	531	
2	0	0	0	0	504	526	
3	0	0	0	0	504	527	
4	0	0	0	0	504	521	
5	0	0	0	0	502	515	
6	0	0	0	0	504	507	
7	0	0	0	0	505	504	
8	0	0	0	0	507	508	
9	0	0	0	0	508	513	
10	0	0	0	0	507	510	
11	0	0	0	0	507	511	
12	0	0	0	0	506	510	
13	0	0	0	0	505	510	
14	0	0	0	0	505	524	
15	0	0	0	0	507	528	
0	0	0	0	0	506	523	
1	0	0	0	0	508	511	
2	0	0	0	0	505	505	
3	0	0	0	0	504	506	
4	0	0	0	0	505	506	
5	0	0	0	0	505	508	
6	0	0	0	0	505	511	
7	0	0	0	0	504	512	
8	0	0	0	0	507	516	
9	0	0	0	0	506	514	
10	0	0	0	0	504	511	
11	0	0	0	0	505	507	
12	0	0	0	0	506	510	
13	0	0	0	0	504	507	
14	0	0	0	0	505	505	
15	0	0	0	0	505	507	
0	0	0	0	0	505	507	
1	0	0	0	0	507	507	
2	0	0	0	0	504	506	
3	0	0	0	0	507	510	
4	0	0	0	0	507	514	
5	0	0	0	0	508	517	
6	0	0	0	0	508	522	
7	0	0	0	0	505	519	
8	0	0	0	0	506	513	
9	0	0	0	0	504	510	
10	0	0	0	0	504	509	
11	0	0	0	0	504	508	
12	0	0	0	0	504	510	
13	0	0	0	0	501	510	
14	0	0	0	0	503	515	
15	0	0	0	0	504	521	
0	0	0	0	0	508	524	
1	0	0	0	0	509	515	
2	0	0	0	0	507	513	
3	0	0	0	0	508	507	
4	0	0	0	0	506	510	
5	0	0	0	0	506	511	
6	0	0	0	0	505	509	
7	0	0	0	0	505	508	
8	0	0	0	0	505	509	
9	0	0	0	0	506	508	
10	0	0	0	0	504	509	
11	0	0	0	0	507	511	
12	0	0	0	0	504	510	
13	0	0	0	0	505	512	
14	0	0	0	0	505	514	
15	0	0	0	0	507	513	
0	0	0	0	0	504	511	
1	0	0	0	0	506	513	
2	0	0	0	0	503	516	
3	0	0	0	0	506	517	
4	0	0	0	0	504	516	
5	0	0	0	0	505	513	
6	0	0	0	0	505	510	
7	0	0	0	0	504	507	
8	0	0	0	0	505	505	
9	0	0	0	0	507	511	
10	0	0	0	0	508	505	
11	0	0	0	0	507	504	
12	0	0	0	0	505	506	
13	0	0	0	0	505	512	
14	0	0	0	0	504	516	
15	0	0	0	0	505	513	
0	0	0	0	0	508	517	
1	0	0	0	0	505	516	
2	0	0	0	0	507	516	
3	0	0	0	0	507	516	
4	0	0	0	0	507	513	
5	0	0	0	0	505	509	
6	0	0	0	0	505	513	
7	0	0	0	0	507	511	
8	0	0	0	0	502	512	
9	0	0	0	0	503	511	
10	0	0	0	0	504	511	
11	0	0	0	0	507	512	
12	0	0	0	0	506	512	
13	0	0	0	0	506	513	
14	0	0	0	0	507	515	
15	0	0	0	0	507	513	
0	0	0	0	0	505	511	
1	0	0	0	0	505	508	
2	0	0	0	0	507	508	
3	0	0	0	0	510	508	
4	0	0	0	0	508	514	
5	0	0	0	0	506	513	
6	0	0	0	0	504	515	
7	0	0	0	0	502	512	
8	0	0	0	0	501	512	
9	0	0	0	0	502	510	
10	0	0	0	0	503	512	
11	0	0	0	0	502	514	
12	0	0	0	0	504	511	
13	0	0	0	0	504	512	
14	0	0	0	0	506	515	
15	0	0	0	0	508	522	
0	0	0	0	0	509	515	
1	0	0	0	0	508	510	
2	0	0	0	0	505	501	
3	0	0	0	0	505	496	
4	0	0	0	0	505	505	
5	0	0	0	0	507	509	
6	0	0	0	0	504	510	
7	0	0	0	0	505	510	
8	0	0	0	0	507	512	
9	0	0	0	0	507	513	
10	0	0	0	0	505	511	
11	0	0	0	0	506	512	
12	0	0	0	0	505	511	
13	0	0	0	0	505	515	
14	0	0	0	0	505	515	
15	0	0	0	0	504	518	
0	0	0	0	0	503	519	
1	0	0	0	0	505	521	
2	0	0	0	0	506	519	
3	0	0	0	0	504	518	
4	0	0	0	0	506	510	
5	0	0	0	0	507	508	
6	0	0	0	0	506	508	
7	0	0	0	0	504	508	
8	0	0	0	0	507	510	
9	0	0	0	0	505	507	
10	0	0	0	0	506	508	
11	0	0	0	0	507	512	
12	0	0	0	0	509	514	
13	0	0	0	0	506	513	
14	0	0	0	0	505	510	
15	0	0	0	0	504	512	
0	0	0	0	0	504	515	
1	0	0	0	0	504	517	
2	0	0	0	0	505	510	
3	0	0	0	0	505	511	
4	0	0	0	0	508	517	
5	0	0	0	0	505	519	
6	0	0	0	0	505	513	
7	0	0	0	0	507	510	
8	0	0	0	0	506	510	
9	0	0	0	0	508	511	
10	0	0	0	0	505	510	
11	0	0	0	0	506	509	
12	0	0	0	0	506	507	
13	0	0	0	0	502	508	
14	0	0	0	0	502	507	
15	0	0	0	0	505	508	
0	0	0	0	0	507	509	
1	0	0	0	0	504	510	
2	0	0	0	0	506	511	
3	0	0	0	0	504	512	
4	0	0	0	0	506	513	
5	0	0	0	0	504	518	
6	0	0	0	0	508	519	
7	0	0	0	0	504	517	
8	0	0	0	0	506	519	
9	0	0	0	0	505	520	
10	0	0	0	0	508	518	
11	0	0	0	0	511	508	
12	0	0	0	0	512	510	
13	0	0	0	0	508	511	
14	0	0	0	0	504	511	
15	0	0	0	0	501	510	
0	0	0	0	0	501	511	
1	0	0	0	0	503	506	
2	0	0	0	0	499	507	
3	0	0	0	0	503	506	
4	0	0	0	0	507	504	
5	0	0	0	0	504	505	
6	0	0	0	0	504	512	
7	0	0	0	0	505	517	
8	0	0	0	0	508	519	
9	0	0	0	0	506	514	
10	0	0	0	0	506	512	
11	0	0	0	0	508	512	
12	0	0	0	0	505	510	
13	0	0	0	0	505	509	
14	0	0	0	0	507	516	
15	0	0	0	0	506	518	
0	0	0	0	0	506	515	
1	0	0	0	0	506	512	
2	0	0	0	0	505	511	
3	0	0	0	0	507	511	
4	0	0	0	0	503	511	
5	0	0	0	0	504	508	
6	0	0	0	0	504	510	
7	0	0	0	0	506	506	
8	0	0	0	0	506	508	
9	0	0	0	0	505	510	
10	0	0	0	0	507	510	
11	0	0	0	0	506	516	
12	0	0	0	0	508	512	
13	0	0	0	0	509	507	
14	0	0	0	0	507	514	
15	0	0	0	0	509	516	
0	0	0	0	0	505	513	
1	0	0	0	0	504	512	
2	0	0	0	0	504	512	
3	0	0	0	0	504	514	
4	0	0	0	0	506	518	
5	0	0	0	0	504	514	
6	0	0	0	0	505	514	
7	0	0	0	0	505	513	
8	0	0	0	0	505	510	
9	0	0	0	0	505	511	
10	0	0	0	0	505	508	
11	0	0	0	0	504	511	
12	0	0	0	0	507	512	
13	0	0	0	0	507	510	
14	0	0	0	0	505	510	
15	0	0	0	0	505	511	
0	0	0	0	0	505	510	
1	0	0	0	0	504	512	
2	0	0	0	0	505	512	
3	0	0	0	0	506	515	
4	0	0	0	0	503	513	
5	0	0	0	0	506	510	
6	0	0	0	0	505	510	
7	0	0	0	0	507	513	
8	0	0	0	0	504	513	
9	0	0	0	0	504	515	
10	0	0	0	0	507	514	
11	0	0	0	0	507	516	
12	0	0	0	0	509	514	
13	0	0	0	0	508	512	
14	0	0	0	0	506	510	
15	0	0	0	0	504	510	
0	0	0	0	0	503	508	
1	0	0	0	0	503	510	
2	0	0	0	0	505	511	
3	0	0	0	0	508	513	
4	0	0	0	0	506	513	
5	0	0	0	0	504	511	
6	0	0	0	0	505	510	
7	0	0	0	0	507	512	
8	0	0	0	0	506	511	
9	0	0	0	0	505	511	
10	0	0	0	0	504	511	
11	0	0	0	0	504	513	
12	0	0	0	0	504	512	
13	0	0	0	0	504	511	
14	0	0	0	0	505	511	
15	0	0	0	0	505	511	
0	0	0	0	0	506	511	
1	0	0	0	0	505	511	
2	0	0	0	0	507	512	
3	0	0	0	0	507	513	
4	0	0	0	0	504	513	
5	0	0	0	0	504	512	
6	0	0	0	0	507	512	
7	0	0	0	0	508	511	
8	0	0	0	0	507	513	
9	0	0	0	0	506	512	
10	0	0	0	0	504	512	
11	0	0	0	0	504	513	
12	0	0	0	0	505	512	
13	0	0	0	0	503	511	
14	0	0	0	0	503	511	
15	0	0	0	0	505	511	
0	0	0	0	0	504	513	
1	0	0	0	0	503	510	
2	0	0	0	0	507	510	
3	0	0	0	0	507	511	
4	0	0	0	0	506	511	
5	0	0	0	0	507	513	
6	0	0	0	0	504	512	
7	0	0	0	0	505	512	
8	0	0	0	0	505	512	
9	0	0	0	0	506	512	
10	0	0	0	0	505	513	
11	0	0	0	0	507	513	
12	0	0	0	0	507	510	
13	0	0	0	0	507	511	
14	0	0	0	0	504	511	
15	0	0	0	0	506	508	
0	0	0	0	0	505	511	
1	0	0	0	0	505	514	
2	0	0	0	0	506	512	
3	0	0	0	0	504	512	
4	0	0	0	0	499	513	
5	0	0	0	0	503	513	
6	0	0	0	0	504	514	
7	0	0	0	0	508	513	
8	0	0	0	0	506	512	
9	0	0	0	0	508	513	
10	0	0	0	0	507	512	
11	0	0	0	0	509	515	
12	0	0	0	0	510	512	
13	0	0	0	0	513	513	
14	0	0	0	0	518	511	
15	0	0	0	0	510	508	
0	0	0	0	0	499	505	
1	0	0	0	0	496	508	
2	0	0	0	0	500	512	
3	0	0	0	0	500	512	
4	0	0	0	0	503	511	
5	0	0	0	0	501	511	
6	0	0	0	0	504	512	
7	0	0	0	0	503	513	
8	0	0	0	0	508	514	
9	0	0	0	0	509	510	
10	0	0	0	0	508	510	
11	0	0	0	0	507	512	
12	0	0	0	0	509	511	
13	0	0	0	0	507	512	
14	0	0	0	0	505	511	
15	0	0	0	0	507	512	
0	0	0	0	0	503	512	
1	0	0	0	0	505	514	
2	0	0	0	0	504	514	
3	0	0	0	0	501	512	
4	0	0	0	0	499	512	
5	0	0	0	0	500	513	
6	0	0	0	0	502	515	
7	0	0	0	0	505	515	
8	0	0	0	0	508	513	
9	0	0	0	0	516	513	
10	0	0	0	0	524	511	
11	0	0	0	0	518	510	
12	0	0	0	0	512	513	
13	0	0	0	0	507	510	
14	0	0	0	0	499	509	
15	0	0	0	0	502	509	
0	0	0	0	0	505	508	
1	0	0	0	0	505	508	
2	0	0	0	0	505	511	
3	0	0	0	0	505	512	
4	0	0	0	0	501	513	
5	0	0	0	0	501	513	
6	0	0	0	0	499	510	
7	0	0	0	0	497	510	
8	0	0	0	0	496	511	
9	0	0	0	0	496	511	
10	0	0	0	0	503	510	
11	0	0	0	0	502	512	
12	0	0	0	0	505	511	
13	0	0	0	0	503	513	
14	0	0	0	0	491	515	
15	0	0	0	0	486	515	
0	0	0	0	0	489	519	
1	0	0	0	0	491	520	
2	0	0	0	0	501	520	
3	0	0	0	0	511	518	
4	0	0	0	0	524	518	
5	0	0	0	0	540	523	
6	0	0	0	0	561	521	
7	0	0	0	0	577	511	
8	0	0	0	0	559	496	
9	0	0	0	0	504	486	
10	0	0	0	0	457	485	
11	0	0	0	0	456	489	
12	0	0	0	0	471	498	
13	0	0	0	0	484	505	
14	0	0	0	0	493	510	
15	0	0	0	0	499	518	
0	0	0	0	0	501	519	
1	0	0	0	0	500	519	
2	0	0	0	0	484	523	
3	0	0	0	0	466	527	
4	0	0	0	0	479	528	
5	0	0	0	0	502	530	
6	0	0	0	0	526	536	
7	0	0	0	0	522	535	
8	0	0	0	0	525	531	
9	0	0	0	0	572	534	
10	0	0	0	0	611	534	
11	0	0	0	0	615	506	
12	0	0	0	0	553	477	
13	0	0	0	0	438	468	
14	0	0	0	0	412	473	
15	0	0	0	0	451	486	
0	0	0	0	0	491	492	
1	0	0	0	0	497	497	
2	0	0	0	0	489	500	
3	0	0	0	0	487	502	
4	0	0	0	0	468	503	
5	0	0	0	0	466	512	
6	0	0	0	0	486	518	
7	0	0	0	0	498	523	
8	0	0	0	0	500	524	
9	0	0	0	0	504	524	
10	0	0	0	0	514	523	
11	0	0	0	0	524	519	
12	0	0	0	0	539	519	
13	0	0	0	0	547	520	
14	0	0	0	0	521	519	
15	0	0	0	0	491	516	
0	0	0	0	0	473	509	
1	0	0	0	0	470	513	
2	0	0	0	0	475	520	
3	0	0	0	0	507	528	
4	0	0	0	0	555	523	
5	0	0	0	0	600	517	
6	0	0	0	0	594	513	
7	0	0	0	0	553	513	
8	0	0	0	0	518	515	
9	0	0	0	0	498	510	
10	0	0	0	0	463	497	
11	0	0	0	0	458	487	
12	0	0	0	0	472	487	
13	0	0	0	0	474	487	
14	0	0	0	0	457	485	
15	0	0	0	0	453	494	
0	0	0	0	0	489	507	
1	0	0	0	0	508	516	
2	0	0	0	0	503	518	
3	0	0	0	0	511	518	
4	0	0	0	0	512	517	
5	0	0	0	0	514	518	
6	0	0	0	0	515	515	
7	0	0	0	0	516	510	
8	0	0	0	0	515	508	
9	0	0	0	0	515	513	
10	0	0	0	0	513	517	
11	0	0	0	0	511	521	
12	0	0	0	0	511	524	
13	0	0	0	0	503	526	
14	0	0	0	0	490	523	
15	0	0	0	0	489	519	
0	0	0	0	0	475	521	
1	0	0	0	0	473	527	
2	0	0	0	0	486	525	
3	0	0	0	0	516	527	
4	0	0	0	0	566	528	
5	0	0	0	0	620	525	
6	0	0	0	0	608	513	
7	0	0	0	0	551	501	
8	0	0	0	0	533	492	
9	0	0	0	0	504	483	
10	0	0	0	0	458	475	
11	0	0	0	0	442	475	
12	0	0	0	0	433	485	
13	0	0	0	0	435	492	
14	0	0	0	0	483	498	
15	0	0	0	0	494	505	
0	0	0	0	0	494	513	
1	0	0	0	0	502	519	
2	0	0	0	0	507	528	
3	0	0	0	0	507	527	
4	0	0	0	0	504	524	
5	0	0	0	0	503	533	
6	0	0	0	0	500	545	
7	0	0	0	0	497	536	
8	0	0	0	0	501	534	
9	0	0	0	0	507	531	
10	0	0	0	0	515	535	
11	0	0	0	0	513	524	
12	0	0	0	0	520	513	
13	0	0	0	0	547	519	
14	0	0	0	0	553	514	
15	0	0	0	0	534	504	
0	0	0	0	0	505	494	
1	0	0	0	0	489	497	
2	0	0	0	0	515	504	
3	0	0	0	0	525	502	
4	0	0	0	0	510	503	
5	0	0	0	0	495	499	
6	0	0	0	0	478	487	
7	0	0	0	0	476	486	
8	0	0	0	0	467	487	
9	0	0	0	0	468	492	
10	0	0	0	0	488	500	
11	0	0	0	0	501	509	
12	0	0	0	0	507	519	
13	0	0	0	0	510	521	
14	0	0	0	0	512	527	
15	0	0	0	0	513	532	
0	0	0	0	0	511	526	
1	0	0	0	0	510	527	
2	0	0	0	0	511	524	
3	0	0	0	0	512	524	
4	0	0	0	0	510	520	
5	0	0	0	0	507	524	
6	0	0	0	0	508	525	
7	0	0	0	0	504	515	
8	0	0	0	0	504	515	
9	0	0	0	0	506	515	
10	0	0	0	0	505	508	
11	0	0	0	0	501	507	
12	0	0	0	0	500	510	
13	0	0	0	0	501	509	
14	0	0	0	0	507	511	
15	0	0	0	0	517	507	
0	0	0	0	0	520	506	
1	0	0	0	0	511	503	
2	0	0	0	0	504	503	
3	0	0	0	0	499	505	
4	0	0	0	0	503	508	
5	0	0	0	0	510	510	
6	0	0	0	0	516	512	
7	0	0	0	0	513	513	
8	0	0	0	0	516	513	
9	0	0	0	0	510	512	
10	0	0	0	0	500	505	
11	0	0	0	0	497	499	
12	0	0	0	0	497	502	
13	0	0	0	0	500	504	
14	0	0	0	0	500	508	
15	0	0	0	0	502	510	
0	0	0	0	0	504	514	
1	0	0	0	0	509	521	
2	0	0	0	0	512	524	
3	0	0	0	0	506	530	
4	0	0	0	0	504	524	
5	0	0	0	0	500	519	
6	0	0	0	0	505	508	
7	0	0	0	0	504	508	
8	0	0	0	0	506	510	
9	0	0	0	0	507	508	
10	0	0	0	0	511	504	
11	0	0	0	0	506	499	
12	0	0	0	0	505	499	
13	0	0	0	0	504	503	
14	0	0	0	0	504	512	
15	0	0	0	0	507	518	
0	0	0	0	0	509	523	
1	0	0	0	0	504	524	
2	0	0	0	0	503	518	
3	0	0	0	0	501	510	
4	0	0	0	0	498	509	
5	0	0	0	0	502	513	
6	0	0	0	0	504	506	
7	0	0	0	0	509	499	
8	0	0	0	0	510	500	
9	0	0	0	0	508	503	
10	0	0	0	0	507	504	
11	0	0	0	0	510	504	
12	0	0	0	0	510	506	
13	0	0	0	0	508	520	
14	0	0	0	0	510	529	
15	0	0	0	0	504	525	
0	0	0	0	0	504	524	
1	0	0	0	0	499	527	
2	0	0	0	0	499	523	
3	0	0	0	0	498	526	
4	0	0	0	0	494	524	
5	0	0	0	0	485	512	
6	0	0	0	0	477	511	
7	0	0	0	0	479	511	
8	0	0	0	0	486	510	
9	0	0	0	0	495	508	
10	0	0	0	0	509	506	
11	0	0	0	0	568	512	
12	0	0	0	0	605	512	
13	0	0	0	0	568	508	
14	0	0	0	0	528	499	
15	0	0	0	0	482	498	
0	0	0	0	0	464	503	
1	0	0	0	0	468	505	
2	0	0	0	0	484	508	
3	0	0	0	0	489	509	
4	0	0	0	0	495	512	
5	0	0	0	0	498	514	
6	0	0	0	0	492	516	
7	0	0	0	0	477	517	
8	0	0	0	0	477	516	
9	0	0	0	0	483	518	
10	0	0	0	0	513	521	
11	0	0	0	0	523	523	
12	0	0	0	0	539	520	
13	0	0	0	0	544	521	
14	0	0	0	0	553	517	
15	0	0	0	0	561	511	
0	0	0	0	0	560	499	
1	0	0	0	0	547	489	
2	0	0	0	0	484	493	
3	0	0	0	0	420	508	
4	0	0	0	0	417	512	
5	0	0	0	0	446	517	
6	0	0	0	0	501	519	
7	0	0	0	0	557	514	
8	0	0	0	0	572	504	
9	0	0	0	0	535	508	
10	0	0	0	0	472	500	
11	0	0	0	0	495	503	
12	0	0	0	0	513	505	
13	0	0	0	0	502	504	
14	0	0	0	0	505	504	
15	0	0	0	0	499	509	
0	0	0	0	0	489	515	
1	0	0	0	0	486	515	
2	0	0	0	0	494	515	
3	0	0	0	0	503	516	
4	0	0	0	0	504	519	
5	0	0	0	0	507	513	
6	0	0	0	0	513	515	
7	0	0	0	0	506	518	
8	0	0	0	0	501	518	
9	0	0	0	0	489	518	
10	0	0	0	0	539	519	
11	0	0	0	0	543	518	
12	0	0	0	0	522	519	
13	0	0	0	0	505	521	
14	0	0	0	0	524	520	
15	0	0	0	0	558	522	
0	0	0	0	0	585	523	
1	0	0	0	0	544	505	
2	0	0	0	0	421	478	
3	0	0	0	0	399	481	
4	0	0	0	0	401	499	
5	0	0	0	0	446	503	
6	0	0	0	0	471	499	
7	0	0	0	0	477	506	
8	0	0	0	0	491	511	
9	0	0	0	0	528	511	
10	0	0	0	0	537	508	
11	0	0	0	0	542	503	
12	0	0	0	0	538	495	
13	0	0	0	0	526	502	
14	0	0	0	0	534	512	
15	0	0	0	0	524	518	
0	0	0	0	0	499	527	
1	0	0	0	0	494	553	
2	0	0	0	0	495	552	
3	0	0	0	0	498	531	
4	0	0	0	0	498	509	
5	0	0	0	0	509	510	
6	0	0	0	0	522	514	
7	0	0	0	0	542	518	
8	0	0	0	0	541	521	
9	0	0	0	0	509	506	
10	0	0	0	0	456	502	
11	0	0	0	0	459	506	
12	0	0	0	0	492	516	
13	0	0	0	0	541	518	
14	0	0	0	0	559	515	
15	0	0	0	0	539	512	
0	0	0	0	0	554	508	
1	0	0	0	0	547	503	
2	0	0	0	0	547	503	
3	0	0	0	0	470	503	
4	0	0	0	0	436	495	
5	0	0	0	0	453	497	
6	0	0	0	0	471	500	
7	0	0	0	0	485	503	
8	0	0	0	0	489	509	
9	0	0	0	0	496	505	
10	0	0	0	0	497	505	
11	0	0	0	0	501	509	
12	0	0	0	0	503	516	
13	0	0	0	0	504	524	
14	0	0	0	0	500	527	
15	0	0	0	0	490	535	
0	0	0	0	0	469	535	
1	0	0	0	0	445	520	
2	0	0	0	0	446	521	
3	0	0	0	0	468	523	
4	0	0	0	0	522	523	
5	0	0	0	0	580	521	
6	0	0	0	0	610	516	
7	0	0	0	0	603	508	
8	0	0	0	0	591	503	
9	0	0	0	0	543	501	
10	0	0	0	0	514	494	
11	0	0	0	0	460	492	
12	0	0	0	0	457	497	
13	0	0	0	0	493	504	
14	0	0	0	0	517	505	
15	0	0	0	0	506	511	
0	0	0	0	0	497	510	
1	0	0	0	0	487	515	
2	0	0	0	0	493	516	
3	0	0	0	0	498	510	
4	0	0	0	0	502	507	
5	0	0	0	0	504	500	
6	0	0	0	0	505	497	
7	0	0	0	0	504	494	
8	0	0	0	0	502	492	
9	0	0	0	0	508	507	
10	0	0	0	0	508	527	
11	0	0	0	0	504	541	
12	0	0	0	0	500	560	
13	0	0	0	0	500	543	
14	0	0	0	0	501	526	
15	0	0	0	0	504	525	
0	0	0	0	0	501	519	
1	0	0	0	0	501	512	
2	0	0	0	0	500	508	
3	0	0	0	0	501	507	
4	0	0	0	0	502	510	
5	0	0	0	0	503	508	
6	0	0	0	0	504	513	
7	0	0	0	0	504	525	
8	0	0	0	0	508	529	
9	0	0	0	0	508	516	
10	0	0	0	0	515	505	
11	0	0	0	0	512	501	
12	0	0	0	0	508	503	
13	0	0	0	0	505	499	
14	0	0	0	0	508	498	
15	0	0	0	0	508	497	
0	0	0	0	0	505	496	
1	0	0	0	0	507	492	
2	0	0	0	0	507	494	
3	0	0	0	0	508	496	
4	0	0	0	0	506	499	
5	0	0	0	0	504	509	
6	0	0	0	0	505	515	
7	0	0	0	0	503	527	
8	0	0	0	0	502	531	
9	0	0	0	0	499	536	
10	0	0	0	0	495	532	
11	0	0	0	0	487	535	
12	0	0	0	0	482	522	
13	0	0	0	0	467	513	
14	0	0	0	0	453	510	
15	0	0	0	0	467	510	
0	0	0	0	0	485	511	
1	0	0	0	0	499	511	
2	0	0	0	0	496	511	
3	0	0	0	0	550	511	
4	0	0	0	0	607	512	
5	0	0	0	0	611	509	
6	0	0	0	0	542	503	
7	0	0	0	0	543	502	
8	0	0	0	0	629	512	
9	0	0	0	0	612	506	
10	0	0	0	0	517	499	
11	0	0	0	0	449	504	
12	0	0	0	0	457	513	
13	0	0	0	0	502	510	
14	0	0	0	0	483	505	
15	0	0	0	0	443	497	
0	0	0	0	0	435	499	
1	0	0	0	0	487	501	
2	0	0	0	0	512	511	
3	0	0	0	0	444	514	
4	0	0	0	0	403	519	
5	0	0	0	0	395	526	
6	0	0	0	0	398	524	
7	0	0	0	0	429	518	
8	0	0	0	0	484	520	
9	0	0	0	0	517	520	
10	0	0	0	0	542	524	
11	0	0	0	0	570	519	
12	0	0	0	0	633	513	
13	0	0	0	0	665	505	
14	0	0	0	0	638	496	
15	0	0	0	0	573	489	
0	0	0	0	0	512	493	
1	0	0	0	0	501	502	
2	0	0	0	0	470	510	
3	0	0	0	0	466	512	
4	0	0	0	0	475	518	
5	0	0	0	0	481	518	
6	0	0	0	0	472	517	
7	0	0	0	0	471	516	
8	0	0	0	0	475	519	
9	0	0	0	0	479	520	
10	0	0	0	0	478	519	
11	0	0	0	0	483	519	
12	0	0	0	0	507	519	
13	0	0	0	0	535	517	
14	0	0	0	0	555	515	
15	0	0	0	0	550	511	
0	0	0	0	0	510	503	
1	0	0	0	0	502	499	
2	0	0	0	0	520	504	
3	0	0	0	0	521	509	
4	0	0	0	0	500	507	
5	0	0	0	0	493	511	
6	0	0	0	0	483	509	
7	0	0	0	0	480	512	
8	0	0	0	0	491	515	
9	0	0	0	0	497	513	
10	0	0	0	0	500	509	
11	0	0	0	0	517	510	
12	0	0	0	0	534	516	
13	0	0	0	0	530	521	
14	0	0	0	0	519	527	
15	0	0	0	0	505	522	
0	0	0	0	0	513	510	
1	0	0	0	0	487	495	
2	0	0	0	0	484	491	
3	0	0	0	0	511	489	
4	0	0	0	0	536	487	
5	0	0	0	0	516	486	
6	0	0	0	0	497	492	
7	0	0	0	0	470	495	
8	0	0	0	0	475	511	
9	0	0	0	0	496	537	
10	0	0	0	0	504	550	
11	0	0	0	0	502	551	
12	0	0	0	0	500	543	
13	0	0	0	0	503	534	
14	0	0	0	0	507	530	
15	0	0	0	0	507	522	
0	0	0	0	0	504	513	
1	0	0	0	0	507	510	
2	0	0	0	0	507	508	
3	0	0	0	0	508	506	
4	0	0	0	0	507	500	
5	0	0	0	0	507	504	
6	0	0	0	0	506	513	
7	0	0	0	0	504	505	
8	0	0	0	0	503	502	
9	0	0	0	0	503	505	
10	0	0	0	0	502	507	
11	0	0	0	0	504	506	
12	0	0	0	0	505	510	
13	0	0	0	0	509	511	
14	0	0	0	0	510	510	
15	0	0	0	0	515	508	
0	0	0	0	0	511	510	
1	0	0	0	0	513	512	
2	0	0	0	0	511	509	
3	0	0	0	0	507	508	
4	0	0	0	0	504	509	
5	0	0	0	0	502	507	
6	0	0	0	0	504	500	
7	0	0	0	0	507	495	
8	0	0	0	0	508	489	
9	0	0	0	0	508	483	
10	0	0	0	0	508	498	
11	0	0	0	0	509	511	
12	0	0	0	0	508	525	
13	0	0	0	0	504	548	
14	0	0	0	0	499	555	
15	0	0	0	0	496	560	
0	0	0	0	0	496	551	
1	0	0	0	0	491	527	
2	0	0	0	0	488	523	
3	0	0	0	0	488	511	
4	0	0	0	0	498	505	
5	0	0	0	0	504	505	
6	0	0	0	0	504	503	
7	0	0	0	0	511	504	
8	0	0	0	0	516	507	
9	0	0	0	0	497	504	
10	0	0	0	0	483	504	
11	0	0	0	0	501	513	
12	0	0	0	0	494	515	
13	0	0	0	0	466	511	
14	0	0	0	0	496	513	
15	0	0	0	0	545	520	
0	0	0	0	0	583	519	
1	0	0	0	0	595	503	
2	0	0	0	0	570	497	
3	0	0	0	0	524	498	
4	0	0	0	0	506	498	
5	0	0	0	0	518	503	
6	0	0	0	0	541	504	
7	0	0	0	0	527	502	
8	0	0	0	0	495	502	
9	0	0	0	0	471	502	
10	0	0	0	0	448	499	
11	0	0	0	0	412	503	
12	0	0	0	0	436	512	
13	0	0	0	0	462	516	
14	0	0	0	0	482	519	
15	0	0	0	0	497	518	
0	0	0	0	0	496	519	
1	0	0	0	0	492	518	
2	0	0	0	0	502	519	
3	0	0	0	0	508	524	
4	0	0	0	0	510	525	
5	0	0	0	0	516	524	
6	0	0	0	0	513	520	
7	0	0	0	0	531	518	
8	0	0	0	0	570	512	
9	0	0	0	0	574	504	
10	0	0	0	0	521	499	
11	0	0	0	0	495	504	
12	0	0	0	0	492	506	
13	0	0	0	0	526	502	
14	0	0	0	0	520	507	
15	0	0	0	0	514	511	
0	0	0	0	0	527	512	
1	0	0	0	0	496	513	
2	0	0	0	0	472	511	
3	0	0	0	0	448	509	
4	0	0	0	0	460	509	
5	0	0	0	0	509	510	
6	0	0	0	0	519	512	
7	0	0	0	0	516	511	
8	0	0	0	0	505	511	
9	0	0	0	0	512	513	
10	0	0	0	0	510	511	
11	0	0	0	0	500	507	
12	0	0	0	0	491	508	
13	0	0	0	0	476	513	
14	0	0	0	0	473	519	
15	0	0	0	0	476	527	
0	0	0	0	0	480	535	
1	0	0	0	0	502	532	
2	0	0	0	0	544	527	
3	0	0	0	0	577	523	
4	0	0	0	0	588	511	
5	0	0	0	0	568	505	
6	0	0	0	0	547	502	
7	0	0	0	0	524	492	
8	0	0	0	0	503	492	
9	0	0	0	0	495	500	
10	0	0	0	0	551	500	
11	0	0	0	0	556	494	
12	0	0	0	0	518	497	
13	0	0	0	0	426	496	
14	0	0	0	0	393	487	
15	0	0	0	0	422	484	
0	0	0	0	0	444	486	
1	0	0	0	0	463	495	
2	0	0	0	0	489	510	
3	0	0	0	0	503	525	
4	0	0	0	0	512	536	
5	0	0	0	0	512	547	
6	0	0	0	0	508	556	
7	0	0	0	0	506	552	
8	0	0	0	0	506	544	
9	0	0	0	0	511	540	
10	0	0	0	0	515	536	
11	0	0	0	0	518	521	
12	0	0	0	0	512	509	
13	0	0	0	0	510	499	
14	0	0	0	0	510	492	
15	0	0	0	0	508	502	
0	0	0	0	0	511	507	
1	0	0	0	0	514	507	
2	0	0	0	0	510	504	
3	0	0	0	0	518	506	
4	0	0	0	0	519	507	
5	0	0	0	0	513	510	
6	0	0	0	0	508	508	
7	0	0	0	0	501	508	
8	0	0	0	0	505	508	
9	0	0	0	0	510	508	
10	0	0	0	0	511	510	
11	0	0	0	0	506	508	
12	0	0	0	0	505	510	
13	0	0	0	0	505	508	
14	0	0	0	0	505	508	
15	0	0	0	0	506	508	
0	0	0	0	0	503	507	
1	0	0	0	0	506	511	
2	0	0	0	0	505	511	
3	0	0	0	0	504	512	
4	0	0	0	0	504	513	
5	0	0	0	0	503	515	
6	0	0	0	0	497	519	
7	0	0	0	0	490	519	
8	0	0	0	0	477	515	
9	0	0	0	0	454	515	
10	0	0	0	0	453	519	
11	0	0	0	0	485	519	
12	0	0	0	0	516	519	
13	0	0	0	0	547	521	
14	0	0	0	0	576	518	
15	0	0	0	0	641	519	
0	0	0	0	0	671	513	
1	0	0	0	0	615	492	
2	0	0	0	0	442	480	
3	0	0	0	0	361	492	
4	0	0	0	0	398	501	
5	0	0	0	0	455	512	
6	0	0	0	0	482	513	
7	0	0	0	0	492	515	
8	0	0	0	0	498	515	
9	0	0	0	0	500	516	
10	0	0	0	0	505	517	
11	0	0	0	0	506	515	
12	0	0	0	0	507	517	
13	0	0	0	0	508	515	
14	0	0	0	0	505	516	
15	0	0	0	0	504	514	
0	0	0	0	0	500	512	
1	0	0	0	0	505	513	
2	0	0	0	0	506	517	
3	0	0	0	0	512	519	
4	0	0	0	0	522	518	
5	0	0	0	0	534	515	
6	0	0	0	0	525	513	
7	0	0	0	0	494	510	
8	0	0	0	0	478	509	
9	0	0	0	0	466	504	
10	0	0	0	0	486	506	
11	0	0	0	0	514	509	
12	0	0	0	0	522	509	
13	0	0	0	0	543	508	
14	0	0	0	0	564	506	
15	0	0	0	0	536	508	
0	0	0	0	0	515	507	
1	0	0	0	0	486	504	
2	0	0	0	0	469	502	
3	0	0	0	0	486	508	
4	0	0	0	0	498	517	
5	0	0	0	0	501	519	
6	0	0	0	0	506	518	
7	0	0	0	0	504	514	
8	0	0	0	0	504	515	
9	0	0	0	0	502	514	
10	0	0	0	0	505	515	
11	0	0	0	0	506	519	
12	0	0	0	0	500	515	
13	0	0	0	0	502	512	
14	0	0	0	0	515	509	
15	0	0	0	0	520	507	
0	0	0	0	0	513	506	
1	0	0	0	0	508	504	
2	0	0	0	0	500	507	
3	0	0	0	0	480	509	
4	0	0	0	0	476	512	
5	0	0	0	0	483	525	
6	0	0	0	0	488	528	
7	0	0	0	0	492	520	
8	0	0	0	0	505	515	
9	0	0	0	0	541	515	
10	0	0	0	0	550	518	
11	0	0	0	0	537	516	
12	0	0	0	0	511	505	
13	0	0	0	0	508	497	
14	0	0	0	0	487	494	
15	0	0	0	0	482	499	
0	0	0	0	0	502	508	
1	0	0	0	0	488	513	
2	0	0	0	0	477	513	
3	0	0	0	0	487	518	
4	0	0	0	0	502	518	
5	0	0	0	0	518	518	
6	0	0	0	0	525	515	
7	0	0	0	0	569	527	
8	0	0	0	0	612	532	
9	0	0	0	0	611	515	
10	0	0	0	0	511	499	
11	0	0	0	0	409	482	
12	0	0	0	0	396	499	
13	0	0	0	0	453	511	
14	0	0	0	0	499	514	
15	0	0	0	0	516	511	
0	0	0	0	0	507	505	
1	0	0	0	0	502	503	
2	0	0	0	0	500	505	
3	0	0	0	0	502	510	
4	0	0	0	0	505	512	
5	0	0	0	0	497	511	
6	0	0	0	0	499	509	
7	0	0	0	0	507	510	
8	0	0	0	0	507	511	
9	0	0	0	0	509	519	
10	0	0	0	0	510	519	
11	0	0	0	0	508	522	
12	0	0	0	0	509	519	
13	0	0	0	0	504	519	
14	0	0	0	0	504	522	
15	0	0	0	0	504	518	
0	0	0	0	0	505	515	
1	0	0	0	0	510	517	
2	0	0	0	0	515	513	
3	0	0	0	0	524	511	
4	0	0	0	0	515	508	
5	0	0	0	0	510	503	
6	0	0	0	0	500	504	
7	0	0	0	0	510	510	
8	0	0	0	0	522	512	
9	0	0	0	0	497	509	
10	0	0	0	0	478	508	
11	0	0	0	0	497	514	
12	0	0	0	0	510	515	
13	0	0	0	0	535	520	
14	0	0	0	0	531	522	
15	0	0	0	0	493	515	
0	0	0	0	0	480	506	
1	0	0	0	0	492	499	
2	0	0	0	0	494	496	
3	0	0	0	0	484	494	
4	0	0	0	0	508	499	
5	0	0	0	0	513	507	
6	0	0	0	0	510	513	
7	0	0	0	0	508	512	
8	0	0	0	0	511	521	
9	0	0	0	0	510	522	
10	0	0	0	0	510	508	
11	0	0	0	0	508	522	
12	0	0	0	0	515	539	
13	0	0	0	0	510	534	
14	0	0	0	0	513	528	
15	0	0	0	0	509	511	
0	0	0	0	0	499	504	
1	0	0	0	0	488	508	
2	0	0	0	0	486	511	
3	0	0	0	0	499	509	
4	0	0	0	0	504	502	
5	0	0	0	0	509	496	
6	0	0	0	0	507	493	
7	0	0	0	0	510	489	
8	0	0	0	0	504	494	
9	0	0	0	0	505	493	
10	0	0	0	0	510	505	
11	0	0	0	0	512	520	
12	0	0	0	0	509	528	
13	0	0	0	0	510	524	
14	0	0	0	0	508	518	
15	0	0	0	0	505	521	
0	0	0	0	0	502	519	
1	0	0	0	0	501	526	
2	0	0	0	0	504	537	
3	0	0	0	0	503	533	
4	0	0	0	0	505	533	
5	0	0	0	0	505	523	
6	0	0	0	0	506	524	
7	0	0	0	0	503	517	
8	0	0	0	0	504	504	
9	0	0	0	0	503	491	
10	0	0	0	0	506	495	
11	0	0	0	0	505	502	
12	0	0	0	0	506	503	
13	0	0	0	0	505	510	
14	0	0	0	0	507	508	
15	0	0	0	0	507	503	
0	0	0	0	0	508	504	
1	0	0	0	0	509	509	
2	0	0	0	0	506	510	
3	0	0	0	0	508	512	
4	0	0	0	0	508	507	
5	0	0	0	0	508	508	
6	0	0	0	0	507	511	
7	0	0	0	0	508	516	
8	0	0	0	0	503	516	
9	0	0	0	0	504	524	
10	0	0	0	0	504	516	
11	0	0	0	0	502	513	
12	0	0	0	0	505	504	
13	0	0	0	0	504	500	
14	0	0	0	0	499	506	
15	0	0	0	0	497	512	
0	0	0	0	0	487	519	
1	0	0	0	0	469	523	
2	0	0	0	0	476	527	
3	0	0	0	0	489	523	
4	0	0	0	0	499	515	
5	0	0	0	0	516	513	
6	0	0	0	0	559	517	
7	0	0	0	0	628	521	
8	0	0	0	0	646	516	
9	0	0	0	0	560	501	
10	0	0	0	0	460	486	
11	0	0	0	0	415	490	
12	0	0	0	0	435	499	
13	0	0	0	0	467	511	
14	0	0	0	0	483	514	
15	0	0	0	0	492	513	
0	0	0	0	0	500	513	
1	0	0	0	0	501	511	
2	0	0	0	0	500	514	
3	0	0	0	0	497	513	
4	0	0	0	0	504	514	
5	0	0	0	0	511	514	
6	0	0	0	0	514	516	
7	0	0	0	0	513	515	
8	0	0	0	0	515	511	
9	0	0	0	0	512	511	
10	0	0	0	0	509	511	
11	0	0	0	0	507	511	
12	0	0	0	0	504	511	
13	0	0	0	0	499	515	
14	0	0	0	0	495	517	
15	0	0	0	0	486	515	
0	0	0	0	0	471	514	
1	0	0	0	0	472	513	
2	0	0	0	0	479	512	
3	0	0	0	0	487	510	
4	0	0	0	0	524	511	
5	0	0	0	0	574	515	
6	0	0	0	0	592	513	
7	0	0	0	0	576	512	
8	0	0	0	0	555	507	
9	0	0	0	0	527	504	
10	0	0	0	0	494	496	
11	0	0	0	0	478	490	
12	0	0	0	0	470	489	
13	0	0	0	0	478	493	
14	0	0	0	0	490	501	
15	0	0	0	0	494	508	
0	0	0	0	0	496	519	
1	0	0	0	0	501	542	
2	0	0	0	0	499	548	
3	0	0	0	0	485	539	
4	0	0	0	0	466	526	
5	0	0	0	0	448	519	
6	0	0	0	0	473	516	
7	0	0	0	0	506	521	
8	0	0	0	0	523	519	
9	0	0	0	0	531	517	
10	0	0	0	0	555	515	
11	0	0	0	0	630	511	
12	0	0	0	0	662	500	
13	0	0	0	0	562	487	
14	0	0	0	0	427	480	
15	0	0	0	0	360	487	
0	0	0	0	0	412	503	
1	0	0	0	0	459	513	
2	0	0	0	0	496	518	
3	0	0	0	0	522	517	
4	0	0	0	0	539	518	
5	0	0	0	0	531	518	
6	0	0	0	0	518	509	
7	0	0	0	0	490	504	
8	0	0	0	0	463	505	
9	0	0	0	0	467	514	
10	0	0	0	0	488	517	
11	0	0	0	0	521	524	
12	0	0	0	0	512	527	
13	0	0	0	0	529	529	
14	0	0	0	0	540	529	
15	0	0	0	0	556	521	
0	0	0	0	0	555	512	
1	0	0	0	0	551	494	
2	0	0	0	0	494	487	
3	0	0	0	0	470	497	
4	0	0	0	0	534	501	
5	0	0	0	0	512	504	
6	0	0	0	0	492	510	
7	0	0	0	0	468	505	
8	0	0	0	0	475	504	
9	0	0	0	0	462	507	
10	0	0	0	0	452	513	
11	0	0	0	0	473	518	
12	0	0	0	0	498	521	
13	0	0	0	0	504	518	
14	0	0	0	0	508	512	
15	0	0	0	0	515	506	
0	0	0	0	0	517	507	
1	0	0	0	0	511	510	
2	0	0	0	0	500	519	
3	0	0	0	0	496	533	
4	0	0	0	0	494	540	
5	0	0	0	0	507	534	
6	0	0	0	0	514	515	
7	0	0	0	0	519	510	
8	0	0	0	0	535	511	
9	0	0	0	0	547	511	
10	0	0	0	0	570	515	
11	0	0	0	0	589	507	
12	0	0	0	0	531	500	
13	0	0	0	0	470	495	
14	0	0	0	0	496	504	
15	0	0	0	0	467	501	
0	0	0	0	0	445	499	
1	0	0	0	0	484	507	
2	0	0	0	0	516	505	
3	0	0	0	0	521	504	
4	0	0	0	0	505	505	
5	0	0	0	0	480	511	
6	0	0	0	0	470	510	
7	0	0	0	0	483	512	
8	0	0	0	0	507	515	
9	0	0	0	0	510	514	
10	0	0	0	0	518	519	
11	0	0	0	0	506	511	
12	0	0	0	0	492	500	
13	0	0	0	0	503	499	
14	0	0	0	0	510	504	
15	0	0	0	0	509	519	
0	0	0	0	0	511	556	
1	0	0	0	0	506	563	
2	0	0	0	0	506	542	
3	0	0	0	0	499	522	
4	0	0	0	0	508	513	
5	0	0	0	0	519	508	
6	0	0	0	0	519	503	
7	0	0	0	0	512	497	
8	0	0	0	0	482	496	
9	0	0	0	0	494	502	
10	0	0	0	0	518	502	
11	0	0	0	0	541	498	
12	0	0	0	0	526	495	
13	0	0	0	0	515	497	
14	0	0	0	0	505	496	
15	0	0	0	0	498	502	
0	0	0	0	0	490	507	
1	0	0	0	0	494	517	
2	0	0	0	0	499	516	
3	0	0	0	0	501	511	
4	0	0	0	0	503	514	
5	0	0	0	0	505	517	
6	0	0	0	0	507	529	
7	0	0	0	0	510	542	
8	0	0	0	0	499	521	
9	0	0	0	0	498	514	
10	0	0	0	0	500	501	
11	0	0	0	0	503	510	
12	0	0	0	0	507	522	
13	0	0	0	0	505	533	
14	0	0	0	0	496	544	
15	0	0	0	0	472	541	
0	0	0	0	0	455	519	
1	0	0	0	0	476	508	
2	0	0	0	0	512	500	
3	0	0	0	0	537	501	
4	0	0	0	0	564	510	
5	0	0	0	0	584	512	
6	0	0	0	0	627	515	
7	0	0	0	0	614	506	
8	0	0	0	0	427	492	
9	0	0	0	0	372	492	
10	0	0	0	0	403	499	
11	0	0	0	0	430	504	
12	0	0	0	0	484	515	
13	0	0	0	0	554	515	
14	0	0	0	0	571	512	
15	0	0	0	0	536	511	
0	0	0	0	0	522	513	
1	0	0	0	0	520	514	
2	0	0	0	0	544	508	
3	0	0	0	0	499	493	
4	0	0	0	0	497	486	
5	0	0	0	0	470	489	
6	0	0	0	0	451	507	
7	0	0	0	0	467	520	
8	0	0	0	0	472	520	
9	0	0	0	0	521	520	
10	0	0	0	0	547	523	
11	0	0	0	0	512	517	
12	0	0	0	0	518	515	
13	0	0	0	0	516	519	
14	0	0	0	0	510	518	
15	0	0	0	0	515	518	
0	0	0	0	0	497	522	
1	0	0	0	0	506	514	
2	0	0	0	0	517	512	
3	0	0	0	0	542	508	
4	0	0	0	0	502	501	
5	0	0	0	0	504	509	
6	0	0	0	0	529	513	
7	0	0	0	0	505	510	
8	0	0	0	0	485	507	
9	0	0	0	0	513	504	
10	0	0	0	0	510	505	
11	0	0	0	0	496	509	
12	0	0	0	0	476	513	
13	0	0	0	0	471	513	
14	0	0	0	0	475	512	
15	0	0	0	0	486	512	
0	0	0	0	0	490	514	
1	0	0	0	0	491	518	
2	0	0	0	0	495	520	
3	0	0	0	0	499	519	
4	0	0	0	0	503	518	
5	0	0	0	0	540	512	
6	0	0	0	0	571	516	
7	0	0	0	0	571	509	
8	0	0	0	0	513	501	
9	0	0	0	0	483	503	
10	0	0	0	0	494	507	
11	0	0	0	0	518	516	
12	0	0	0	0	536	518	
13	0	0	0	0	505	512	
14	0	0	0	0	463	514	
15	0	0	0	0	512	520	
0	0	0	0	0	571	527	
1	0	0	0	0	559	517	
2	0	0	0	0	532	494	
3	0	0	0	0	508	493	
4	0	0	0	0	463	496	
5	0	0	0	0	460	504	
6	0	0	0	0	440	515	
7	0	0	0	0	431	518	
8	0	0	0	0	449	519	
9	0	0	0	0	509	511	
10	0	0	0	0	543	499	
11	0	0	0	0	559	495	
12	0	0	0	0	515	504	
13	0	0	0	0	489	512	
14	0	0	0	0	472	510	
15	0	0	0	0	489	512	
0	0	0	0	0	473	507	
1	0	0	0	0	496	504	
2	0	0	0	0	507	518	
3	0	0	0	0	512	526	
4	0	0	0	0	528	535	
5	0	0	0	0	552	536	
6	0	0	0	0	558	518	
7	0	0	0	0	481	504	
8	0	0	0	0	437	507	
9	0	0	0	0	435	508	
10	0	0	0	0	467	520	
11	0	0	0	0	502	529	
12	0	0	0	0	547	536	
13	0	0	0	0	555	519	
14	0	0	0	0	584	500	
15	0	0	0	0	660	496	
0	0	0	0	0	607	491	
1	0	0	0	0	478	485	
2	0	0	0	0	439	484	
3	0	0	0	0	464	487	
4	0	0	0	0	476	488	
5	0	0	0	0	460	497	
6	0	0	0	0	473	512	
7	0	0	0	0	480	520	
8	0	0	0	0	486	526	
9	0	0	0	0	496	537	
10	0	0	0	0	504	545	
11	0	0	0	0	505	544	
12	0	0	0	0	508	524	
13	0	0	0	0	512	507	
14	0	0	0	0	516	500	
15	0	0	0	0	520	506	
0	0	0	0	0	518	513	
1	0	0	0	0	509	517	
2	0	0	0	0	504	514	
3	0	0	0	0	504	519	
4	0	0	0	0	503	523	
5	0	0	0	0	503	523	
6	0	0	0	0	506	521	
7	0	0	0	0	506	518	
8	0	0	0	0	502	504	
9	0	0	0	0	496	500	
10	0	0	0	0	496	506	
11	0	0	0	0	515	519	
12	0	0	0	0	527	524	
13	0	0	0	0	514	521	
14	0	0	0	0	526	524	
15	0	0	0	0	556	519	
0	0	0	0	0	575	512	
1	0	0	0	0	539	495	
2	0	0	0	0	445	480	
3	0	0	0	0	415	484	
4	0	0	0	0	463	497	
5	0	0	0	0	479	505	
6	0	0	0	0	476	505	
7	0	0	0	0	461	507	
8	0	0	0	0	461	511	
9	0	0	0	0	505	513	
10	0	0	0	0	529	519	
11	0	0	0	0	537	527	
12	0	0	0	0	545	530	
13	0	0	0	0	547	522	
14	0	0	0	0	543	515	
15	0	0	0	0	516	508	
0	0	0	0	0	531	511	
1	0	0	0	0	475	506	
2	0	0	0	0	480	510	
3	0	0	0	0	489	505	
4	0	0	0	0	469	496	
5	0	0	0	0	480	499	
6	0	0	0	0	514	507	
7	0	0	0	0	531	512	
8	0	0	0	0	546	520	
9	0	0	0	0	542	520	
10	0	0	0	0	502	509	
11	0	0	0	0	461	505	
12	0	0	0	0	460	507	
13	0	0	0	0	489	513	
14	0	0	0	0	505	514	
15	0	0	0	0	523	518	
0	0	0	0	0	539	517	
1	0	0	0	0	524	514	
2	0	0	0	0	513	512	
3	0	0	0	0	507	509	
4	0	0	0	0	504	507	
5	0	0	0	0	518	509	
6	0	0	0	0	508	519	
7	0	0	0	0	495	523	
8	0	0	0	0	498	519	
9	0	0	0	0	504	523	
10	0	0	0	0	499	521	
11	0	0	0	0	501	520	
12	0	0	0	0	515	516	
13	0	0	0	0	508	513	
14	0	0	0	0	504	511	
15	0	0	0	0	517	509	
0	0	0	0	0	528	505	
1	0	0	0	0	511	500	
2	0	0	0	0	512	499	
3	0	0	0	0	511	498	
4	0	0	0	0	499	502	
5	0	0	0	0	467	501	
6	0	0	0	0	467	502	
7	0	0	0	0	475	510	
8	0	0	0	0	476	521	
9	0	0	0	0	492	520	
10	0	0	0	0	502	526	
11	0	0	0	0	529	535	
12	0	0	0	0	558	543	
13	0	0	0	0	552	536	
14	0	0	0	0	529	511	
15	0	0	0	0	537	503	
0	0	0	0	0	537	497	
1	0	0	0	0	491	490	
2	0	0	0	0	457	499	
3	0	0	0	0	458	504	
4	0	0	0	0	492	513	
5	0	0	0	0	556	516	
6	0	0	0	0	582	512	
7	0	0	0	0	450	496	
8	0	0	0	0	417	487	
9	0	0	0	0	465	499	
10	0	0	0	0	518	515	
11	0	0	0	0	532	517	
12	0	0	0	0	524	511	
13	0	0	0	0	498	519	
14	0	0	0	0	483	528	
15	0	0	0	0	479	529	
0	0	0	0	0	509	517	
1	0	0	0	0	504	502	
2	0	0	0	0	507	500	
3	0	0	0	0	534	505	
4	0	0	0	0	523	508	
5	0	0	0	0	496	504	
6	0	0	0	0	498	510	
7	0	0	0	0	485	513	
8	0	0	0	0	496	516	
9	0	0	0	0	517	520	
10	0	0	0	0	525	519	
11	0	0	0	0	508	516	
12	0	0	0	0	515	513	
13	0	0	0	0	518	509	
14	0	0	0	0	507	508	
15	0	0	0	0	510	507	
0	0	0	0	0	504	515	
1	0	0	0	0	496	516	
2	0	0	0	0	499	513	
3	0	0	0	0	501	519	
4	0	0	0	0	497	520	
5	0	0	0	0	506	516	
6	0	0	0	0	513	511	
7	0	0	0	0	517	513	
8	0	0	0	0	527	515	
9	0	0	0	0	527	503	
10	0	0	0	0	522	499	
11	0	0	0	0	509	504	
12	0	0	0	0	491	509	
13	0	0	0	0	488	516	
14	0	0	0	0	494	513	
15	0	0	0	0	494	509	
0	0	0	0	0	495	510	
1	0	0	0	0	495	517	
2	0	0	0	0	497	526	
3	0	0	0	0	504	520	
4	0	0	0	0	512	524	
5	0	0	0	0	508	517	
6	0	0	0	0	518	513	
7	0	0	0	0	528	516	
8	0	0	0	0	508	508	
9	0	0	0	0	512	506	
10	0	0	0	0	502	505	
11	0	0	0	0	508	508	
12	0	0	0	0	501	510	
13	0	0	0	0	482	510	
14	0	0	0	0	481	512	
15	0	0	0	0	493	507	
0	0	0	0	0	507	508	
1	0	0	0	0	522	510	
2	0	0	0	0	528	510	
3	0	0	0	0	531	510	
4	0	0	0	0	535	512	
5	0	0	0	0	519	512	
6	0	0	0	0	485	507	
7	0	0	0	0	450	507	
8	0	0	0	0	472	511	
9	0	0	0	0	494	515	
10	0	0	0	0	503	519	
11	0	0	0	0	534	520	
12	0	0	0	0	531	518	
13	0	0	0	0	497	510	
14	0	0	0	0	494	513	
15	0	0	0	0	499	515	
0	0	0	0	0	507	509	
1	0	0	0	0	519	503	
2	0	0	0	0	534	502	
3	0	0	0	0	511	506	
4	0	0	0	0	478	506	
5	0	0	0	0	490	509	
6	0	0	0	0	512	510	
7	0	0	0	0	519	515	
8	0	0	0	0	506	511	
9	0	0	0	0	484	507	
10	0	0	0	0	483	510	
11	0	0	0	0	503	520	
12	0	0	0	0	504	523	
13	0	0	0	0	509	526	
14	0	0	0	0	507	524	
15	0	0	0	0	495	514	
0	0	0	0	0	492	514	
1	0	0	0	0	504	514	
2	0	0	0	0	519	514	
3	0	0	0	0	529	518	
4	0	0	0	0	532	519	
5	0	0	0	0	540	514	
6	0	0	0	0	526	508	
7	0	0	0	0	487	496	
8	0	0	0	0	476	495	
9	0	0	0	0	492	504	
10	0	0	0	0	487	504	
11	0	0	0	0	496	510	
12	0	0	0	0	519	515	
13	0	0	0	0	525	516	
14	0	0	0	0	522	518	
15	0	0	0	0	536	517	
0	0	0	0	0	542	513	
1	0	0	0	0	524	509	
2	0	0	0	0	491	508	
3	0	0	0	0	484	514	
4	0	0	0	0	479	515	
5	0	0	0	0	460	505	
6	0	0	0	0	467	499	
7	0	0	0	0	483	507	
8	0	0	0	0	494	520	
9	0	0	0	0	506	519	
10	0	0	0	0	515	516	
11	0	0	0	0	534	518	
12	0	0	0	0	517	516	
13	0	0	0	0	501	512	
14	0	0	0	0	488	512	
15	0	0	0	0	495	512	
0	0	0	0	0	504	509	
1	0	0	0	0	527	506	
2	0	0	0	0	528	509	
3	0	0	0	0	542	514	
4	0	0	0	0	538	510	
5	0	0	0	0	521	504	
6	0	0	0	0	507	507	
7	0	0	0	0	497	510	
8	0	0	0	0	500	516	
9	0	0	0	0	513	516	
10	0	0	0	0	486	519	
11	0	0	0	0	480	510	
12	0	0	0	0	471	508	
13	0	0	0	0	505	508	
14	0	0	0	0	511	507	
15	0	0	0	0	504	509	
0	0	0	0	0	499	508	
1	0	0	0	0	496	514	
2	0	0	0	0	492	513	
3	0	0	0	0	500	516	
4	0	0	0	0	509	520	
5	0	0	0	0	508	511	
6	0	0	0	0	508	514	
7	0	0	0	0	504	510	
8	0	0	0	0	512	510	
9	0	0	0	0	509	513	
10	0	0	0	0	516	512	
11	0	0	0	0	517	504	
12	0	0	0	0	516	508	
13	0	0	0	0	505	514	
14	0	0	0	0	502	519	
15	0	0	0	0	502	515	
0	0	0	0	0	503	509	
1	0	0	0	0	504	526	
2	0	0	0	0	504	536	
3	0	0	0	0	501	525	
4	0	0	0	0	498	505	
5	0	0	0	0	500	504	
6	0	0	0	0	508	508	
7	0	0	0	0	507	513	
8	0	0	0	0	513	515	
9	0	0	0	0	515	513	
10	0	0	0	0	500	514	
11	0	0	0	0	496	513	
12	0	0	0	0	503	506	
13	0	0	0	0	494	503	
14	0	0	0	0	497	508	
15	0	0	0	0	511	513	
0	0	0	0	0	529	510	
1	0	0	0	0	528	507	
2	0	0	0	0	536	508	
3	0	0	0	0	540	513	
4	0	0	0	0	536	518	
5	0	0	0	0	514	516	
6	0	0	0	0	475	512	
7	0	0	0	0	473	513	
8	0	0	0	0	465	506	
9	0	0	0	0	496	504	
10	0	0	0	0	532	502	
11	0	0	0	0	473	496	
12	0	0	0	0	470	491	
13	0	0	0	0	470	505	
14	0	0	0	0	482	514	
15	0	0	0	0	487	516	
0	0	0	0	0	503	517	
1	0	0	0	0	516	516	
2	0	0	0	0	513	515	
3	0	0	0	0	510	518	
4	0	0	0	0	508	518	
5	0	0	0	0	511	517	
6	0	0	0	0	504	520	
7	0	0	0	0	502	519	
8	0	0	0	0	499	516	
9	0	0	0	0	513	512	
10	0	0	0	0	543	511	
11	0	0	0	0	547	512	
12	0	0	0	0	555	514	
13	0	0	0	0	563	507	
14	0	0	0	0	551	505	
15	0	0	0	0	494	503	
0	0	0	0	0	444	507	
1	0	0	0	0	451	510	
2	0	0	0	0	480	513	
3	0	0	0	0	494	515	
4	0	0	0	0	489	512	
5	0	0	0	0	505	506	
6	0	0	0	0	505	504	
7	0	0	0	0	504	507	
8	0	0	0	0	513	510	
9	0	0	0	0	497	512	
10	0	0	0	0	493	509	
11	0	0	0	0	507	508	
12	0	0	0	0	512	508	
13	0	0	0	0	515	515	
14	0	0	0	0	514	517	
15	0	0	0	0	511	519	
0	0	0	0	0	507	526	
1	0	0	0	0	504	532	
2	0	0	0	0	503	524	
3	0	0	0	0	505	521	
4	0	0	0	0	504	518	
5	0	0	0	0	505	521	
6	0	0	0	0	503	519	
7	0	0	0	0	505	512	
8	0	0	0	0	505	507	
9	0	0	0	0	504	499	
10	0	0	0	0	505	492	
11	0	0	0	0	507	495	
12	0	0	0	0	505	507	
13	0	0	0	0	504	520	
14	0	0	0	0	504	515	
15	0	0	0	0	504	517	
0	0	0	0	0	500	514	
1	0	0	0	0	502	507	
2	0	0	0	0	499	503	
3	0	0	0	0	500	507	
4	0	0	0	0	497	513	
5	0	0	0	0	504	516	
6	0	0	0	0	512	518	
7	0	0	0	0	520	518	
8	0	0	0	0	525	513	
9	0	0	0	0	532	511	
10	0	0	0	0	524	502	
11	0	0	0	0	509	500	
12	0	0	0	0	485	502	
13	0	0	0	0	482	508	
14	0	0	0	0	488	515	
15	0	0	0	0	496	515	
0	0	0	0	0	499	513	
1	0	0	0	0	502	513	
2	0	0	0	0	498	513	
3	0	0	0	0	488	513	
4	0	0	0	0	498	513	
5	0	0	0	0	519	515	
6	0	0	0	0	531	521	
7	0	0	0	0	535	524	
8	0	0	0	0	534	525	
9	0	0	0	0	533	516	
10	0	0	0	0	523	505	
11	0	0	0	0	502	499	
12	0	0	0	0	470	496	
13	0	0	0	0	455	500	
14	0	0	0	0	490	512	
15	0	0	0	0	515	513	
0	0	0	0	0	545	512	
1	0	0	0	0	530	511	
2	0	0	0	0	475	505	
3	0	0	0	0	467	508	
4	0	0	0	0	477	513	
5	0	0	0	0	496	514	
6	0	0	0	0	506	513	
7	0	0	0	0	515	512	
8	0	0	0	0	510	508	
9	0	0	0	0	518	507	
10	0	0	0	0	509	505	
11	0	0	0	0	512	508	
12	0	0	0	0	512	511	
13	0	0	0	0	510	516	
14	0	0	0	0	507	522	
15	0	0	0	0	506	529	
0	0	0	0	0	492	537	
1	0	0	0	0	483	535	
2	0	0	0	0	478	521	
3	0	0	0	0	499	509	
4	0	0	0	0	512	508	
5	0	0	0	0	524	509	
6	0	0	0	0	539	513	
7	0	0	0	0	553	513	
8	0	0	0	0	559	512	
9	0	0	0	0	527	500	
10	0	0	0	0	492	497	
11	0	0	0	0	463	498	
12	0	0	0	0	447	503	
13	0	0	0	0	503	508	
14	0	0	0	0	530	510	
15	0	0	0	0	500	507	
0	0	0	0	0	483	506	
1	0	0	0	0	502	508	
2	0	0	0	0	500	513	
3	0	0	0	0	500	515	
4	0	0	0	0	496	513	
5	0	0	0	0	485	511	
6	0	0	0	0	487	511	
7	0	0	0	0	496	512	
8	0	0	0	0	507	516	
9	0	0	0	0	523	516	
10	0	0	0	0	536	513	
11	0	0	0	0	540	510	
12	0	0	0	0	540	511	
13	0	0	0	0	513	506	
14	0	0	0	0	495	506	
15	0	0	0	0	478	509	
0	0	0	0	0	463	513	
1	0	0	0	0	462	513	
2	0	0	0	0	487	514	
3	0	0	0	0	516	514	
4	0	0	0	0	532	519	
5	0	0	0	0	541	518	
6	0	0	0	0	525	511	
7	0	0	0	0	519	510	
8	0	0	0	0	520	508	
9	0	0	0	0	510	503	
10	0	0	0	0	497	497	
11	0	0	0	0	485	501	
12	0	0	0	0	489	503	
13	0	0	0	0	496	502	
14	0	0	0	0	502	506	
15	0	0	0	0	508	513	
0	0	0	0	0	511	524	
1	0	0	0	0	509	518	
2	0	0	0	0	507	508	
3	0	0	0	0	506	505	
4	0	0	0	0	505	514	
5	0	0	0	0	506	527	
6	0	0	0	0	507	527	
7	0	0	0	0	508	534	
8	0	0	0	0	508	532	
9	0	0	0	0	503	529	
10	0	0	0	0	505	518	
11	0	0	0	0	502	511	
12	0	0	0	0	498	504	
13	0	0	0	0	499	508	
14	0	0	0	0	500	519	
15	0	0	0	0	500	513	
0	0	0	0	0	502	508	
1	0	0	0	0	506	508	
2	0	0	0	0	515	509	
3	0	0	0	0	529	513	
4	0	0	0	0	525	513	
5	0	0	0	0	511	513	
6	0	0	0	0	500	505	
7	0	0	0	0	513	500	
8	0	0	0	0	506	502	
9	0	0	0	0	481	502	
10	0	0	0	0	497	502	
11	0	0	0	0	497	504	
12	0	0	0	0	498	507	
13	0	0	0	0	495	512	
14	0	0	0	0	492	515	
15	0	0	0	0	492	515	
0	0	0	0	0	505	513	
1	0	0	0	0	519	514	
2	0	0	0	0	535	515	
3	0	0	0	0	520	515	
4	0	0	0	0	496	512	
5	0	0	0	0	480	512	
6	0	0	0	0	496	516	
7	0	0	0	0	502	517	
8	0	0	0	0	510	519	
9	0	0	0	0	518	513	
10	0	0	0	0	550	512	
11	0	0	0	0	580	510	
12	0	0	0	0	521	502	
13	0	0	0	0	469	505	
14	0	0	0	0	471	507	
15	0	0	0	0	492	510	
0	0	0	0	0	497	512	
1	0	0	0	0	505	515	
2	0	0	0	0	528	509	
3	0	0	0	0	536	508	
4	0	0	0	0	504	508	
5	0	0	0	0	475	511	
6	0	0	0	0	470	513	
7	0	0	0	0	482	504	
8	0	0	0	0	496	496	
9	0	0	0	0	503	496	
10	0	0	0	0	511	497	
11	0	0	0	0	509	510	
12	0	0	0	0	508	516	
13	0	0	0	0	505	522	
14	0	0	0	0	507	537	
15	0	0	0	0	507	547	
0	0	0	0	0	503	543	
1	0	0	0	0	504	526	
2	0	0	0	0	507	512	
3	0	0	0	0	508	510	
4	0	0	0	0	508	513	
5	0	0	0	0	505	521	
6	0	0	0	0	505	508	
7	0	0	0	0	507	498	
8	0	0	0	0	508	499	
9	0	0	0	0	505	499	
10	0	0	0	0	505	501	
11	0	0	0	0	507	510	
12	0	0	0	0	510	515	
13	0	0	0	0	508	514	
14	0	0	0	0	506	509	
15	0	0	0	0	510	508	
0	0	0	0	0	508	502	
1	0	0	0	0	504	501	
2	0	0	0	0	504	507	
3	0	0	0	0	503	506	
4	0	0	0	0	505	511	
5	0	0	0	0	505	504	
6	0	0	0	0	505	503	
7	0	0	0	0	508	512	
8	0	0	0	0	507	511	
9	0	0	0	0	510	512	
10	0	0	0	0	507	528	
11	0	0	0	0	504	532	
12	0	0	0	0	499	545	
13	0	0	0	0	480	538	
14	0	0	0	0	478	519	
15	0	0	0	0	487	519	
0	0	0	0	0	495	520	
1	0	0	0	0	509	518	
2	0	0	0	0	564	513	
3	0	0	0	0	603	502	
4	0	0	0	0	568	492	
5	0	0	0	0	471	484	
6	0	0	0	0	430	486	
7	0	0	0	0	458	497	
8	0	0	0	0	490	506	
9	0	0	0	0	514	512	
10	0	0	0	0	516	515	
11	0	0	0	0	510	513	
12	0	0	0	0	497	513	
13	0	0	0	0	486	511	
14	0	0	0	0	484	513	
15	0	0	0	0	490	514	
0	0	0	0	0	494	515	
1	0	0	0	0	509	515	
2	0	0	0	0	534	517	
3	0	0	0	0	557	518	
4	0	0	0	0	563	516	
5	0	0	0	0	528	506	
6	0	0	0	0	500	506	
7	0	0	0	0	502	510	
8	0	0	0	0	492	511	
9	0	0	0	0	482	511	
10	0	0	0	0	511	513	
11	0	0	0	0	508	515	
12	0	0	0	0	487	510	
13	0	0	0	0	484	507	
14	0	0	0	0	484	510	
15	0	0	0	0	494	511	
0	0	0	0	0	514	510	
1	0	0	0	0	512	503	
2	0	0	0	0	498	499	
3	0	0	0	0	503	504	
4	0	0	0	0	505	505	
5	0	0	0	0	507	511	
6	0	0	0	0	508	515	
7	0	0	0	0	506	512	
8	0	0	0	0	506	523	
9	0	0	0	0	507	535	
10	0	0	0	0	505	537	
11	0	0	0	0	503	531	
12	0	0	0	0	503	515	
13	0	0	0	0	504	512	
14	0	0	0	0	507	509	
15	0	0	0	0	505	504	
0	0	0	0	0	506	502	
1	0	0	0	0	505	499	
2	0	0	0	0	506	507	
3	0	0	0	0	504	513	
4	0	0	0	0	504	519	
5	0	0	0	0	500	522	
6	0	0	0	0	498	515	
7	0	0	0	0	513	521	
8	0	0	0	0	518	519	
9	0	0	0	0	511	518	
10	0	0	0	0	515	509	
11	0	0	0	0	541	503	
12	0	0	0	0	535	502	
13	0	0	0	0	502	502	
14	0	0	0	0	479	496	
15	0	0	0	0	472	503	
0	0	0	0	0	483	503	
1	0	0	0	0	504	503	
2	0	0	0	0	506	508	
3	0	0	0	0	505	513	
4	0	0	0	0	504	516	
5	0	0	0	0	504	520	
6	0	0	0	0	508	515	
7	0	0	0	0	507	515	
8	0	0	0	0	503	518	
9	0	0	0	0	500	521	
10	0	0	0	0	494	520	
11	0	0	0	0	485	518	
12	0	0	0	0	484	508	
13	0	0	0	0	485	511	
14	0	0	0	0	496	515	
15	0	0	0	0	521	519	
0	0	0	0	0	562	519	
1	0	0	0	0	596	514	
2	0	0	0	0	547	502	
3	0	0	0	0	512	495	
4	0	0	0	0	483	494	
5	0	0	0	0	475	502	
6	0	0	0	0	470	509	
7	0	0	0	0	487	512	
8	0	0	0	0	495	512	
9	0	0	0	0	500	512	
10	0	0	0	0	503	511	
11	0	0	0	0	503	514	
12	0	0	0	0	504	517	
13	0	0	0	0	505	520	
14	0	0	0	0	500	520	
15	0	0	0	0	494	517	
0	0	0	0	0	493	518	
1	0	0	0	0	493	518	
2	0	0	0	0	492	515	
3	0	0	0	0	507	514	
4	0	0	0	0	522	515	
5	0	0	0	0	560	516	
6	0	0	0	0	579	514	
7	0	0	0	0	544	505	
8	0	0	0	0	518	501	
9	0	0	0	0	486	498	
10	0	0	0	0	463	505	
11	0	0	0	0	459	510	
12	0	0	0	0	478	512	
13	0	0	0	0	496	516	
14	0	0	0	0	502	517	
15	0	0	0	0	507	514	
0	0	0	0	0	504	510	
1	0	0	0	0	507	507	
2	0	0	0	0	496	503	
3	0	0	0	0	504	502	
4	0	0	0	0	515	507	
5	0	0	0	0	513	509	
6	0	0	0	0	499	512	
7	0	0	0	0	511	517	
8	0	0	0	0	508	516	
9	0	0	0	0	514	525	
10	0	0	0	0	517	526	
11	0	0	0	0	506	512	
12	0	0	0	0	487	504	
13	0	0	0	0	483	508	
14	0	0	0	0	493	510	
15	0	0	0	0	505	525	
0	0	0	0	0	512	536	
1	0	0	0	0	510	527	
2	0	0	0	0	508	511	
3	0	0	0	0	517	504	
4	0	0	0	0	531	508	
5	0	0	0	0	513	504	
6	0	0	0	0	519	505	
7	0	0	0	0	513	509	
8	0	0	0	0	499	509	
9	0	0	0	0	503	509	
10	0	0	0	0	517	507	
11	0	0	0	0	504	507	
12	0	0	0	0	486	508	
13	0	0	0	0	487	504	
14	0	0	0	0	504	498	
15	0	0	0	0	504	496	
0	0	0	0	0	497	497	
1	0	0	0	0	503	515	
2	0	0	0	0	505	523	
3	0	0	0	0	505	519	
4	0	0	0	0	504	518	
5	0	0	0	0	508	524	
6	0	0	0	0	508	522	
7	0	0	0	0	506	515	
8	0	0	0	0	503	513	
9	0	0	0	0	504	508	
10	0	0	0	0	505	505	
11	0	0	0	0	507	524	
12	0	0	0	0	508	527	
13	0	0	0	0	506	518	
14	0	0	0	0	505	504	
15	0	0	0	0	508	504	
0	0	0	0	0	507	509	
1	0	0	0	0	505	520	
2	0	0	0	0	503	519	
3	0	0	0	0	507	515	
4	0	0	0	0	510	510	
5	0	0	0	0	507	509	
6	0	0	0	0	499	506	
7	0	0	0	0	498	510	
8	0	0	0	0	496	516	
9	0	0	0	0	501	518	
10	0	0	0	0	508	518	
11	0	0	0	0	520	509	
12	0	0	0	0	512	510	
13	0	0	0	0	502	504	
14	0	0	0	0	527	499	
15	0	0	0	0	525	496	
0	0	0	0	0	497	492	
1	0	0	0	0	478	499	
2	0	0	0	0	495	504	
3	0	0	0	0	512	512	
4	0	0	0	0	513	518	
5	0	0	0	0	512	520	
6	0	0	0	0	507	527	
7	0	0	0	0	507	545	
8	0	0	0	0	503	542	
9	0	0	0	0	502	525	
10	0	0	0	0	498	505	
11	0	0	0	0	495	506	
12	0	0	0	0	502	508	
13	0	0	0	0	507	507	
14	0	0	0	0	507	508	
15	0	0	0	0	510	504	
0	0	0	0	0	511	505	
1	0	0	0	0	502	506	
2	0	0	0	0	496	509	
3	0	0	0	0	508	508	
4	0	0	0	0	513	508	
5	0	0	0	0	508	504	
6	0	0	0	0	502	499	
7	0	0	0	0	504	503	
8	0	0	0	0	506	506	
9	0	0	0	0	507	509	
10	0	0	0	0	509	511	
11	0	0	0	0	508	513	
12	0	0	0	0	508	521	
13	0	0	0	0	508	520	
14	0	0	0	0	504	512	
15	0	0	0	0	504	512	
0	0	0	0	0	505	509	
1	0	0	0	0	504	519	
2	0	0	0	0	502	531	
3	0	0	0	0	499	540	
4	0	0	0	0	496	533	
5	0	0	0	0	485	515	
6	0	0	0	0	482	509	
7	0	0	0	0	491	507	
8	0	0	0	0	502	512	
9	0	0	0	0	524	515	
10	0	0	0	0	548	512	
11	0	0	0	0	543	502	
12	0	0	0	0	534	493	
13	0	0	0	0	527	496	
14	0	0	0	0	513	503	
15	0	0	0	0	481	505	
0	0	0	0	0	455	511	
1	0	0	0	0	454	513	
2	0	0	0	0	507	515	
3	0	0	0	0	541	515	
4	0	0	0	0	508	508	
5	0	0	0	0	516	505	
6	0	0	0	0	531	511	
7	0	0	0	0	525	508	
8	0	0	0	0	482	505	
9	0	0	0	0	466	513	
10	0	0	0	0	484	515	
11	0	0	0	0	496	517	
12	0	0	0	0	495	517	
13	0	0	0	0	504	518	
14	0	0	0	0	529	518	
15	0	0	0	0	560	519	
0	0	0	0	0	563	521	
1	0	0	0	0	564	513	
2	0	0	0	0	537	506	
3	0	0	0	0	487	509	
4	0	0	0	0	485	516	
5	0	0	0	0	490	521	
6	0	0	0	0	449	519	
7	0	0	0	0	448	509	
8	0	0	0	0	496	500	
9	0	0	0	0	461	494	
10	0	0	0	0	460	499	
11	0	0	0	0	473	507	
12	0	0	0	0	521	508	
13	0	0	0	0	551	497	
14	0	0	0	0	524	500	
15	0	0	0	0	487	512	
0	0	0	0	0	491	515	
1	0	0	0	0	499	516	
2	0	0	0	0	508	516	
3	0	0	0	0	511	511	
4	0	0	0	0	513	511	
5	0	0	0	0	514	512	
6	0	0	0	0	513	514	
7	0	0	0	0	510	524	
8	0	0	0	0	509	529	
9	0	0	0	0	511	528	
10	0	0	0	0	510	518	
11	0	0	0	0	509	516	
12	0	0	0	0	502	513	
13	0	0	0	0	513	510	
14	0	0	0	0	526	507	
15	0	0	0	0	515	509	
0	0	0	0	0	507	515	
1	0	0	0	0	512	510	
2	0	0	0	0	498	505	
3	0	0	0	0	492	503	
4	0	0	0	0	487	506	
5	0	0	0	0	484	505	
6	0	0	0	0	489	512	
7	0	0	0	0	528	518	
8	0	0	0	0	556	516	
9	0	0	0	0	543	509	
10	0	0	0	0	519	511	
11	0	0	0	0	487	508	
12	0	0	0	0	499	512	
13	0	0	0	0	497	509	
14	0	0	0	0	499	505	
15	0	0	0	0	497	502	
0	0	0	0	0	502	503	
1	0	0	0	0	504	502	
2	0	0	0	0	499	501	
3	0	0	0	0	501	509	
4	0	0	0	0	498	514	
5	0	0	0	0	500	526	
6	0	0	0	0	504	536	
7	0	0	0	0	500	529	
8	0	0	0	0	501	527	
9	0	0	0	0	504	526	
10	0	0	0	0	508	518	
11	0	0	0	0	505	512	
12	0	0	0	0	508	509	
13	0	0	0	0	512	511	
14	0	0	0	0	508	510	
15	0	0	0	0	500	494	
0	0	0	0	0	475	499	
1	0	0	0	0	477	512	
2	0	0	0	0	494	519	
3	0	0	0	0	520	522	
4	0	0	0	0	528	520	
5	0	0	0	0	533	508	
6	0	0	0	0	532	502	
7	0	0	0	0	543	504	
8	0	0	0	0	548	510	
9	0	0	0	0	542	514	
10	0	0	0	0	518	505	
11	0	0	0	0	463	500	
12	0	0	0	0	451	503	
13	0	0	0	0	462	509	
14	0	0	0	0	491	507	
15	0	0	0	0	488	504	
0	0	0	0	0	492	503	
1	0	0	0	0	503	510	
2	0	0	0	0	509	508	
3	0	0	0	0	510	519	
4	0	0	0	0	508	520	
5	0	0	0	0	508	523	
6	0	0	0	0	507	523	
7	0	0	0	0	505	519	
8	0	0	0	0	508	515	
9	0	0	0	0	510	521	
10	0	0	0	0	509	518	
11	0	0	0	0	506	510	
12	0	0	0	0	505	511	
13	0	0	0	0	505	516	
14	0	0	0	0	506	519	
15	0	0	0	0	507	528	
0	0	0	0	0	508	533	
1	0	0	0	0	508	517	
2	0	0	0	0	505	497	
3	0	0	0	0	505	492	
4	0	0	0	0	504	492	
5	0	0	0	0	508	494	
6	0	0	0	0	508	499	
7	0	0	0	0	505	503	
8	0	0	0	0	508	511	
9	0	0	0	0	512	516	
10	0	0	0	0	509	522	
11	0	0	0	0	505	524	
12	0	0	0	0	505	524	
13	0	0	0	0	505	523	
14	0	0	0	0	505	513	
15	0	0	0	0	501	509	
0	0	0	0	0	504	507	
1	0	0	0	0	505	508	
2	0	0	0	0	505	517	
3	0	0	0	0	503	518	
4	0	0	0	0	502	520	
5	0	0	0	0	501	518	
6	0	0	0	0	486	506	
7	0	0	0	0	480	504	
8	0	0	0	0	478	505	
9	0	0	0	0	483	515	
10	0	0	0	0	503	519	
11	0	0	0	0	547	518	
12	0	0	0	0	577	518	
13	0	0	0	0	614	514	
14	0	0	0	0	569	505	
15	0	0	0	0	473	494	
0	0	0	0	0	436	493	
1	0	0	0	0	452	500	
2	0	0	0	0	470	505	
3	0	0	0	0	491	512	
4	0	0	0	0	481	515	
5	0	0	0	0	487	518	
6	0	0	0	0	487	518	
7	0	0	0	0	497	518	
8	0	0	0	0	510	517	
9	0	0	0	0	546	520	
10	0	0	0	0	575	524	
11	0	0	0	0	565	512	
12	0	0	0	0	512	501	
13	0	0	0	0	498	504	
14	0	0	0	0	487	506	
15	0	0	0	0	494	507	
0	0	0	0	0	500	510	
1	0	0	0	0	506	515	
2	0	0	0	0	495	517	
3	0	0	0	0	503	511	
4	0	0	0	0	532	512	
5	0	0	0	0	516	515	
6	0	0	0	0	469	508	
7	0	0	0	0	472	505	
8	0	0	0	0	497	501	
9	0	0	0	0	503	508	
10	0	0	0	0	482	510	
11	0	0	0	0	470	508	
12	0	0	0	0	490	507	
13	0	0	0	0	508	505	
14	0	0	0	0	511	509	
15	0	0	0	0	514	513	
0	0	0	0	0	515	516	
1	0	0	0	0	514	520	
2	0	0	0	0	513	529	
3	0	0	0	0	513	529	
4	0	0	0	0	510	524	
5	0	0	0	0	511	512	
6	0	0	0	0	510	508	
7	0	0	0	0	509	504	
8	0	0	0	0	509	510	
9	0	0	0	0	507	512	
10	0	0	0	0	508	513	
11	0	0	0	0	508	516	
12	0	0	0	0	507	523	
13	0	0	0	0	505	516	
14	0	0	0	0	500	514	
15	0	0	0	0	502	511	
0	0	0	0	0	501	513	
1	0	0	0	0	496	511	
2	0	0	0	0	494	511	
3	0	0	0	0	497	508	
4	0	0	0	0	503	509	
5	0	0	0	0	519	506	
6	0	0	0	0	552	510	
7	0	0	0	0	541	513	
8	0	0	0	0	507	507	
9	0	0	0	0	478	505	
10	0	0	0	0	473	505	
11	0	0	0	0	495	508	
12	0	0	0	0	498	514	
13	0	0	0	0	504	513	
14	0	0	0	0	512	517	
15	0	0	0	0	526	512	
0	0	0	0	0	535	510	
1	0	0	0	0	539	506	
2	0	0	0	0	499	504	
3	0	0	0	0	476	510	
4	0	0	0	0	464	521	
5	0	0	0	0	480	519	
6	0	0	0	0	509	515	
7	0	0	0	0	497	513	
8	0	0	0	0	485	510	
9	0	0	0	0	488	508	
10	0	0	0	0	496	515	
11	0	0	0	0	513	523	
12	0	0	0	0	535	518	
13	0	0	0	0	554	508	
14	0	0	0	0	571	514	
15	0	0	0	0	550	505	
0	0	0	0	0	518	497	
1	0	0	0	0	469	510	
2	0	0	0	0	439	519	
3	0	0	0	0	467	519	
4	0	0	0	0	488	516	
5	0	0	0	0	497	516	
6	0	0	0	0	510	504	
7	0	0	0	0	531	498	
8	0	0	0	0	531	500	
9	0	0	0	0	502	508	
10	0	0	0	0	480	508	
11	0	0	0	0	495	507	
12	0	0	0	0	497	502	
13	0	0	0	0	496	505	
14	0	0	0	0	501	508	
15	0	0	0	0	508	504	
0	0	0	0	0	511	506	
1	0	0	0	0	512	520	
2	0	0	0	0	511	526	
3	0	0	0	0	511	528	
4	0	0	0	0	509	528	
5	0	0	0	0	508	517	
6	0	0	0	0	507	515	
7	0	0	0	0	505	514	
8	0	0	0	0	508	515	
9	0	0	0	0	512	532	
10	0	0	0	0	510	541	
11	0	0	0	0	502	530	
12	0	0	0	0	499	519	
13	0	0	0	0	500	508	
14	0	0	0	0	503	508	
15	0	0	0	0	505	509	
0	0	0	0	0	505	502	
1	0	0	0	0	504	501	
2	0	0	0	0	507	500	
3	0	0	0	0	507	504	
4	0	0	0	0	504	504	
5	0	0	0	0	509	504	
6	0	0	0	0	510	507	
7	0	0	0	0	508	507	
8	0	0	0	0	508	510	
9	0	0	0	0	508	508	
10	0	0	0	0	506	503	
11	0	0	0	0	507	498	
12	0	0	0	0	508	498	
13	0	0	0	0	506	503	
14	0	0	0	0	505	509	
15	0	0	0	0	507	507	
0	0	0	0	0	506	507	
1	0	0	0	0	507	518	
2	0	0	0	0	502	529	
3	0	0	0	0	503	537	
4	0	0	0	0	502	525	
5	0	0	0	0	502	512	
6	0	0	0	0	502	512	
7	0	0	0	0	504	514	
8	0	0	0	0	505	518	
9	0	0	0	0	507	520	
10	0	0	0	0	506	520	
11	0	0	0	0	505	519	
12	0	0	0	0	505	516	
13	0	0	0	0	504	510	
14	0	0	0	0	505	505	
15	0	0	0	0	503	507	
0	0	0	0	0	501	508	
1	0	0	0	0	497	509	
2	0	0	0	0	501	508	
3	0	0	0	0	502	507	
4	0	0	0	0	500	509	
5	0	0	0	0	515	514	
6	0	0	0	0	518	512	
7	0	0	0	0	505	510	
8	0	0	0	0	508	511	
9	0	0	0	0	523	513	
10	0	0	0	0	537	514	
11	0	0	0	0	519	508	
12	0	0	0	0	494	501	
13	0	0	0	0	488	503	
14	0	0	0	0	499	508	
15	0	0	0	0	504	509	
0	0	0	0	0	497	508	
1	0	0	0	0	499	509	
2	0	0	0	0	503	511	
3	0	0	0	0	504	515	
4	0	0	0	0	504	517	
5	0	0	0	0	496	520	
6	0	0	0	0	492	522	
7	0	0	0	0	481	518	
8	0	0	0	0	487	517	
9	0	0	0	0	496	517	
10	0	0	0	0	515	516	
11	0	0	0	0	550	515	
12	0	0	0	0	595	517	
13	0	0	0	0	579	510	
14	0	0	0	0	497	497	
15	0	0	0	0	432	494	
0	0	0	0	0	446	503	
1	0	0	0	0	484	510	
2	0	0	0	0	502	511	
3	0	0	0	0	518	512	
4	0	0	0	0	507	512	
5	0	0	0	0	507	513	
6	0	0	0	0	510	511	
7	0	0	0	0	512	512	
8	0	0	0	0	507	511	
9	0	0	0	0	506	509	
10	0	0	0	0	504	512	
11	0	0	0	0	503	511	
12	0	0	0	0	506	512	
13	0	0	0	0	504	512	
14	0	0	0	0	502	514	
15	0	0	0	0	505	518	
0	0	0	0	0	506	517	
1	0	0	0	0	508	515	
2	0	0	0	0	513	515	
3	0	0	0	0	505	513	
4	0	0	0	0	497	513	
5	0	0	0	0	502	513	
6	0	0	0	0	509	513	
7	0	0	0	0	519	508	
8	0	0	0	0	512	502	
9	0	0	0	0	515	509	
10	0	0	0	0	502	508	
11	0	0	0	0	505	509	
12	0	0	0	0	502	507	
13	0	0	0	0	500	504	
14	0	0	0	0	487	505	
15	0	0	0	0	486	509	
0	0	0	0	0	499	510	
1	0	0	0	0	506	513	
2	0	0	0	0	508	512	
3	0	0	0	0	504	512	
4	0	0	0	0	492	518	
5	0	0	0	0	487	524	
6	0	0	0	0	489	527	
7	0	0	0	0	501	522	
8	0	0	0	0	516	519	
9	0	0	0	0	517	519	
10	0	0	0	0	542	518	
11	0	0	0	0	547	518	
12	0	0	0	0	551	511	
13	0	0	0	0	516	499	
14	0	0	0	0	487	495	
15	0	0	0	0	502	505	
0	0	0	0	0	545	513	
1	0	0	0	0	608	517	
2	0	0	0	0	573	508	
3	0	0	0	0	438	498	
4	0	0	0	0	353	491	
5	0	0	0	0	402	496	
6	0	0	0	0	460	502	
7	0	0	0	0	485	507	
8	0	0	0	0	488	511	
9	0	0	0	0	494	518	
10	0	0	0	0	503	519	
11	0	0	0	0	510	523	
12	0	0	0	0	507	525	
13	0	0	0	0	541	523	
14	0	0	0	0	536	524	
15	0	0	0	0	524	527	
0	0	0	0	0	534	523	
1	0	0	0	0	561	517	
2	0	0	0	0	583	505	
3	0	0	0	0	568	498	
4	0	0	0	0	510	489	
5	0	0	0	0	460	499	
6	0	0	0	0	444	504	
7	0	0	0	0	454	504	
8	0	0	0	0	472	505	
9	0	0	0	0	485	508	
10	0	0	0	0	498	515	
11	0	0	0	0	505	522	
12	0	0	0	0	506	528	
13	0	0	0	0	508	521	
14	0	0	0	0	513	510	
15	0	0	0	0	513	505	
0	0	0	0	0	510	503	
1	0	0	0	0	509	509	
2	0	0	0	0	507	510	
3	0	0	0	0	507	511	
4	0	0	0	0	507	522	
5	0	0	0	0	509	529	
6	0	0	0	0	508	529	
7	0	0	0	0	510	528	
8	0	0	0	0	507	508	
9	0	0	0	0	505	494	
10	0	0	0	0	507	491	
11	0	0	0	0	506	504	
12	0	0	0	0	510	518	
13	0	0	0	0	507	529	
14	0	0	0	0	505	522	
15	0	0	0	0	502	518	
0	0	0	0	0	500	517	
1	0	0	0	0	500	515	
2	0	0	0	0	502	518	
3	0	0	0	0	504	516	
4	0	0	0	0	508	517	
5	0	0	0	0	516	512	
6	0	0	0	0	536	508	
7	0	0	0	0	520	499	
8	0	0	0	0	499	499	
9	0	0	0	0	489	506	
10	0	0	0	0	484	507	
11	0	0	0	0	491	506	
12	0	0	0	0	498	507	
13	0	0	0	0	500	515	
14	0	0	0	0	507	516	
15	0	0	0	0	510	511	
0	0	0	0	0	507	510	
1	0	0	0	0	506	510	
2	0	0	0	0	503	510	
3	0	0	0	0	495	507	
4	0	0	0	0	499	508	
5	0	0	0	0	503	519	
6	0	0	0	0	486	523	
7	0	0	0	0	486	526	
8	0	0	0	0	495	521	
9	0	0	0	0	514	517	
10	0	0	0	0	551	512	
11	0	0	0	0	606	510	
12	0	0	0	0	566	505	
13	0	0	0	0	490	495	
14	0	0	0	0	492	489	
15	0	0	0	0	511	500	
0	0	0	0	0	494	517	
1	0	0	0	0	480	518	
2	0	0	0	0	492	518	
3	0	0	0	0	497	513	
4	0	0	0	0	520	512	
5	0	0	0	0	497	518	
6	0	0	0	0	463	512	
7	0	0	0	0	455	507	
8	0	0	0	0	461	510	
9	0	0	0	0	484	514	
10	0	0	0	0	505	516	
11	0	0	0	0	531	516	
12	0	0	0	0	522	516	
13	0	0	0	0	512	513	
14	0	0	0	0	525	510	
15	0	0	0	0	535	509	
0	0	0	0	0	519	507	
1	0	0	0	0	517	507	
2	0	0	0	0	514	511	
3	0	0	0	0	504	515	
4	0	0	0	0	483	510	
5	0	0	0	0	489	510	
6	0	0	0	0	495	513	
7	0	0	0	0	507	519	
8	0	0	0	0	508	516	
9	0	0	0	0	508	514	
10	0	0	0	0	502	508	
11	0	0	0	0	507	503	
12	0	0	0	0	510	504	
13	0	0	0	0	519	504	
14	0	0	0	0	509	504	
15	0	0	0	0	499	510	
0	0	0	0	0	507	518	
1	0	0	0	0	509	523	
2	0	0	0	0	505	521	
3	0	0	0	0	504	522	
4	0	0	0	0	498	514	
5	0	0	0	0	499	515	
6	0	0	0	0	500	511	
7	0	0	0	0	502	510	
8	0	0	0	0	518	510	
9	0	0	0	0	524	514	
10	0	0	0	0	515	509	
11	0	0	0	0	504	506	
12	0	0	0	0	505	514	
13	0	0	0	0	503	518	
14	0	0	0	0	496	511	
15	0	0	0	0	495	509	
0	0	0	0	0	509	512	
1	0	0	0	0	504	505	
2	0	0	0	0	498	504	
3	0	0	0	0	501	511	
4	0	0	0	0	511	518	
5	0	0	0	0	524	518	
6	0	0	0	0	528	519	
7	0	0	0	0	523	518	
8	0	0	0	0	506	519	
9	0	0	0	0	492	518	
10	0	0	0	0	508	505	
11	0	0	0	0	492	496	
12	0	0	0	0	491	499	
13	0	0	0	0	488	497	
14	0	0	0	0	494	503	
15	0	0	0	0	500	512	
0	0	0	0	0	501	515	
1	0	0	0	0	495	522	
2	0	0	0	0	491	524	
3	0	0	0	0	496	520	
4	0	0	0	0	492	513	
5	0	0	0	0	511	510	
6	0	0	0	0	523	510	
7	0	0	0	0	532	514	
8	0	0	0	0	543	511	
9	0	0	0	0	540	510	
10	0	0	0	0	515	515	
11	0	0	0	0	517	513	
12	0	0	0	0	519	508	
13	0	0	0	0	506	510	
14	0	0	0	0	476	505	
15	0	0	0	0	487	500	
0	0	0	0	0	487	504	
1	0	0	0	0	485	507	
2	0	0	0	0	496	515	
3	0	0	0	0	503	517	
4	0	0	0	0	501	518	
5	0	0	0	0	506	515	
6	0	0	0	0	505	513	
7	0	0	0	0	507	515	
8	0	0	0	0	505	512	
9	0	0	0	0	511	511	
10	0	0	0	0	505	512	
11	0	0	0	0	496	512	
12	0	0	0	0	499	513	
13	0	0	0	0	518	510	
14	0	0	0	0	521	508	
15	0	0	0	0	511	501	
0	0	0	0	0	504	501	
1	0	0	0	0	507	507	
2	0	0	0	0	508	523	
3	0	0	0	0	502	529	
4	0	0	0	0	486	521	
5	0	0	0	0	498	515	
6	0	0	0	0	504	516	
7	0	0	0	0	506	515	
8	0	0	0	0	508	512	
9	0	0	0	0	506	503	
10	0	0	0	0	505	491	
11	0	0	0	0	507	491	
12	0	0	0	0	508	498	
13	0	0	0	0	510	515	
14	0	0	0	0	510	531	
15	0	0	0	0	508	536	
0	0	0	0	0	504	538	
1	0	0	0	0	502	521	
2	0	0	0	0	504	519	
3	0	0	0	0	505	518	
4	0	0	0	0	503	506	
5	0	0	0	0	506	503	
6	0	0	0	0	506	505	
7	0	0	0	0	504	511	
8	0	0	0	0	503	510	
9	0	0	0	0	504	512	
10	0	0	0	0	501	513	
11	0	0	0	0	499	511	
12	0	0	0	0	505	509	
13	0	0	0	0	507	508	
14	0	0	0	0	494	508	
15	0	0	0	0	499	510	
0	0	0	0	0	515	515	
1	0	0	0	0	511	514	
2	0	0	0	0	508	511	
3	0	0	0	0	528	510	
4	0	0	0	0	557	512	
5	0	0	0	0	560	508	
6	0	0	0	0	523	491	
7	0	0	0	0	463	492	
8	0	0	0	0	442	500	
9	0	0	0	0	462	509	
10	0	0	0	0	489	510	
11	0	0	0	0	505	511	
12	0	0	0	0	509	515	
13	0	0	0	0	503	520	
14	0	0	0	0	504	524	
15	0	0	0	0	507	520	
0	0	0	0	0	509	517	
1	0	0	0	0	507	521	
2	0	0	0	0	508	518	
3	0	0	0	0	502	514	
4	0	0	0	0	498	516	
5	0	0	0	0	504	519	
6	0	0	0	0	508	520	
7	0	0	0	0	510	511	
8	0	0	0	0	526	508	
9	0	0	0	0	537	507	
10	0	0	0	0	515	505	
11	0	0	0	0	496	504	
12	0	0	0	0	494	504	
13	0	0	0	0	499	510	
14	0	0	0	0	501	508	
15	0	0	0	0	503	508	
0	0	0	0	0	505	506	
1	0	0	0	0	506	505	
2	0	0	0	0	509	510	
3	0	0	0	0	509	520	
4	0	0	0	0	507	520	
5	0	0	0	0	505	513	
6	0	0	0	0	503	511	
7	0	0	0	0	504	513	
8	0	0	0	0	504	516	
9	0	0	0	0	504	515	
10	0	0	0	0	504	509	
11	0	0	0	0	503	509	
12	0	0	0	0	504	513	
13	0	0	0	0	505	512	
14	0	0	0	0	502	516	
15	0	0	0	0	504	520	
0	0	0	0	0	507	527	
1	0	0	0	0	507	525	
2	0	0	0	0	506	517	
3	0	0	0	0	503	511	
4	0	0	0	0	504	508	
5	0	0	0	0	507	505	
6	0	0	0	0	506	504	
7	0	0	0	0	508	509	
8	0	0	0	0	507	510	
9	0	0	0	0	505	511	
10	0	0	0	0	504	511	
11	0	0	0	0	503	513	
12	0	0	0	0	494	511	
13	0	0	0	0	487	510	
14	0	0	0	0	484	510	
15	0	0	0	0	483	507	
0	0	0	0	0	501	512	
1	0	0	0	0	513	516	
2	0	0	0	0	542	517	
3	0	0	0	0	575	519	
4	0	0	0	0	568	515	
5	0	0	0	0	547	506	
6	0	0	0	0	508	502	
7	0	0	0	0	464	500	
8	0	0	0	0	451	501	
9	0	0	0	0	447	508	
10	0	0	0	0	452	511	
11	0	0	0	0	481	512	
12	0	0	0	0	482	515	
13	0	0	0	0	489	518	
14	0	0	0	0	528	524	
15	0	0	0	0	566	525	
0	0	0	0	0	553	520	
1	0	0	0	0	533	515	
2	0	0	0	0	527	507	
3	0	0	0	0	531	505	
4	0	0	0	0	516	505	
5	0	0	0	0	512	507	
6	0	0	0	0	537	508	
7	0	0	0	0	561	511	
8	0	0	0	0	548	504	
9	0	0	0	0	512	497	
10	0	0	0	0	417	502	
11	0	0	0	0	405	508	
12	0	0	0	0	425	510	
13	0	0	0	0	460	518	
14	0	0	0	0	487	514	
15	0	0	0	0	508	513	
0	0	0	0	0	523	512	
1	0	0	0	0	533	512	
2	0	0	0	0	551	513	
3	0	0	0	0	545	515	
4	0	0	0	0	522	515	
5	0	0	0	0	508	511	
6	0	0	0	0	494	515	
7	0	0	0	0	468	517	
8	0	0	0	0	482	516	
9	0	0	0	0	490	516	
10	0	0	0	0	495	512	
11	0	0	0	0	505	515	
12	0	0	0	0	511	515	
13	0	0	0	0	511	514	
14	0	0	0	0	499	515	
15	0	0	0	0	496	514	
0	0	0	0	0	498	516	
1	0	0	0	0	511	516	
2	0	0	0	0	524	514	
3	0	0	0	0	541	514	
4	0	0	0	0	552	510	
5	0	0	0	0	543	506	
6	0	0	0	0	514	500	
7	0	0	0	0	499	496	
8	0	0	0	0	483	502	
9	0	0	0	0	481	507	
10	0	0	0	0	487	504	
11	0	0	0	0	492	503	
12	0	0	0	0	497	505	
13	0	0	0	0	503	511	
14	0	0	0	0	507	520	
15	0	0	0	0	509	528	
0	0	0	0	0	507	517	
1	0	0	0	0	506	497	
2	0	0	0	0	507	498	
3	0	0	0	0	505	510	
4	0	0	0	0	504	528	
5	0	0	0	0	505	542	
6	0	0	0	0	507	532	
7	0	0	0	0	505	516	
8	0	0	0	0	506	511	
9	0	0	0	0	505	516	
10	0	0	0	0	501	515	
11	0	0	0	0	490	512	
12	0	0	0	0	483	515	
13	0	0	0	0	485	520	
14	0	0	0	0	501	510	
15	0	0	0	0	517	503	
0	0	0	0	0	534	507	
1	0	0	0	0	551	511	
2	0	0	0	0	575	510	
3	0	0	0	0	559	504	
4	0	0	0	0	487	495	
5	0	0	0	0	429	500	
6	0	0	0	0	469	508	
7	0	0	0	0	495	507	
8	0	0	0	0	509	503	
9	0	0	0	0	502	502	
10	0	0	0	0	491	506	
11	0	0	0	0	492	510	
12	0	0	0	0	500	512	
13	0	0	0	0	502	515	
14	0	0	0	0	490	515	
15	0	0	0	0	489	518	
0	0	0	0	0	486	518	
1	0	0	0	0	487	522	
2	0	0	0	0	499	520	
3	0	0	0	0	527	519	
4	0	0	0	0	568	523	
5	0	0	0	0	581	518	
6	0	0	0	0	573	508	
7	0	0	0	0	562	507	
8	0	0	0	0	536	504	
9	0	0	0	0	467	499	
10	0	0	0	0	434	499	
11	0	0	0	0	458	500	
12	0	0	0	0	461	511	
13	0	0	0	0	481	514	
14	0	0	0	0	494	515	
15	0	0	0	0	500	513	
0	0	0	0	0	504	515	
1	0	0	0	0	503	517	
2	0	0	0	0	508	514	
3	0	0	0	0	499	512	
4	0	0	0	0	502	511	
5	0	0	0	0	507	511	
6	0	0	0	0	507	510	
7	0	0	0	0	506	505	
8	0	0	0	0	512	500	
9	0	0	0	0	516	504	
10	0	0	0	0	512	510	
11	0	0	0	0	512	522	
12	0	0	0	0	509	533	
13	0	0	0	0	510	531	
14	0	0	0	0	508	530	
15	0	0	0	0	506	530	
0	0	0	0	0	502	521	
1	0	0	0	0	502	517	
2	0	0	0	0	503	511	
3	0	0	0	0	504	511	
4	0	0	0	0	502	514	
5	0	0	0	0	497	507	
6	0	0	0	0	493	503	
7	0	0	0	0	495	506	
8	0	0	0	0	499	505	
9	0	0	0	0	506	508	
10	0	0	0	0	516	512	
11	0	0	0	0	532	510	
12	0	0	0	0	532	510	
13	0	0	0	0	530	506	
14	0	0	0	0	513	504	
15	0	0	0	0	504	508	
0	0	0	0	0	494	511	
1	0	0	0	0	492	510	
2	0	0	0	0	499	511	
3	0	0	0	0	505	510	
4	0	0	0	0	502	509	
5	0	0	0	0	500	509	
6	0	0	0	0	500	510	
7	0	0	0	0	503	511	
8	0	0	0	0	508	514	
9	0	0	0	0	496	515	
10	0	0	0	0	492	515	
11	0	0	0	0	497	512	
12	0	0	0	0	501	515	
13	0	0	0	0	504	513	
14	0	0	0	0	512	511	
15	0	0	0	0	526	514	
0	0	0	0	0	540	512	
1	0	0	0	0	529	507	
2	0	0	0	0	511	507	
3	0	0	0	0	507	508	
4	0	0	0	0	504	515	
5	0	0	0	0	506	519	
6	0	0	0	0	477	516	
7	0	0	0	0	456	507	
8	0	0	0	0	480	512	
9	0	0	0	0	521	515	
10	0	0	0	0	552	518	
11	0	0	0	0	558	520	
12	0	0	0	0	547	518	
13	0	0	0	0	540	519	
14	0	0	0	0	529	507	
15	0	0	0	0	467	491	
0	0	0	0	0	487	486	
1	0	0	0	0	515	491	
2	0	0	0	0	445	505	
3	0	0	0	0	395	507	
4	0	0	0	0	453	512	
5	0	0	0	0	495	511	
6	0	0	0	0	504	509	
7	0	0	0	0	510	515	
8	0	0	0	0	512	515	
9	0	0	0	0	514	518	
10	0	0	0	0	515	518	
11	0	0	0	0	519	519	
12	0	0	0	0	519	514	
13	0	0	0	0	515	513	
14	0	0	0	0	513	516	
15	0	0	0	0	512	514	
0	0	0	0	0	512	511	
1	0	0	0	0	515	519	
2	0	0	0	0	513	516	
3	0	0	0	0	513	516	
4	0	0	0	0	509	513	
5	0	0	0	0	508	508	
6	0	0	0	0	507	507	
7	0	0	0	0	506	515	
8	0	0	0	0	507	519	
9	0	0	0	0	506	516	
10	0	0	0	0	505	515	
11	0	0	0	0	505	511	
12	0	0	0	0	505	505	
13	0	0	0	0	507	504	
14	0	0	0	0	504	503	
15	0	0	0	0	504	503	
0	0	0	0	0	506	506	
1	0	0	0	0	506	511	
2	0	0	0	0	505	515	
3	0	0	0	0	504	519	
4	0	0	0	0	502	526	
5	0	0	0	0	500	522	
6	0	0	0	0	503	518	
7	0	0	0	0	505	511	
8	0	0	0	0	506	511	
9	0	0	0	0	518	507	
10	0	0	0	0	513	506	
11	0	0	0	0	496	511	
12	0	0	0	0	492	512	
13	0	0	0	0	498	518	
14	0	0	0	0	502	519	
15	0	0	0	0	508	511	
0	0	0	0	0	500	510	
1	0	0	0	0	497	510	
2	0	0	0	0	502	509	
3	0	0	0	0	513	509	
4	0	0	0	0	508	509	
5	0	0	0	0	497	512	
6	0	0	0	0	530	515	
7	0	0	0	0	573	518	
8	0	0	0	0	550	515	
9	0	0	0	0	507	505	
10	0	0	0	0	473	506	
11	0	0	0	0	471	503	
12	0	0	0	0	474	502	
13	0	0	0	0	473	507	
14	0	0	0	0	486	510	
15	0	0	0	0	507	508	
0	0	0	0	0	526	513	
1	0	0	0	0	519	514	
2	0	0	0	0	499	515	
3	0	0	0	0	488	512	
4	0	0	0	0	496	513	
5	0	0	0	0	505	515	
6	0	0	0	0	500	515	
7	0	0	0	0	510	515	
8	0	0	0	0	515	516	
9	0	0	0	0	521	522	
10	0	0	0	0	514	521	
11	0	0	0	0	497	519	
12	0	0	0	0	524	510	
13	0	0	0	0	552	511	
14	0	0	0	0	522	510	
15	0	0	0	0	497	507	
0	0	0	0	0	479	508	
1	0	0	0	0	499	508	
2	0	0	0	0	512	507	
3	0	0	0	0	489	510	
4	0	0	0	0	461	513	
5	0	0	0	0	481	513	
6	0	0	0	0	500	513	
7	0	0	0	0	508	513	
8	0	0	0	0	513	512	
9	0	0	0	0	525	510	
10	0	0	0	0	541	508	
11	0	0	0	0	542	507	
12	0	0	0	0	502	510	
13	0	0	0	0	477	512	
14	0	0	0	0	472	513	
15	0	0	0	0	486	514	
0	0	0	0	0	496	514	
1	0	0	0	0	511	515	
2	0	0	0	0	519	512	
3	0	0	0	0	525	510	
4	0	0	0	0	511	508	
5	0	0	0	0	504	508	
6	0	0	0	0	512	504	
7	0	0	0	0	515	506	
8	0	0	0	0	510	509	
9	0	0	0	0	504	512	
10	0	0	0	0	504	516	
11	0	0	0	0	499	523	
12	0	0	0	0	494	524	
13	0	0	0	0	504	529	
14	0	0	0	0	501	524	
15	0	0	0	0	496	512	
0	0	0	0	0	494	507	
1	0	0	0	0	512	513	
2	0	0	0	0	518	510	
3	0	0	0	0	521	504	
4	0	0	0	0	510	504	
5	0	0	0	0	497	508	
6	0	0	0	0	491	505	
7	0	0	0	0	490	505	
8	0	0	0	0	491	507	
9	0	0	0	0	507	511	
10	0	0	0	0	523	515	
11	0	0	0	0	539	515	
12	0	0	0	0	523	515	
13	0	0	0	0	498	512	
14	0	0	0	0	494	508	
15	0	0	0	0	494	511	
0	0	0	0	0	497	513	
1	0	0	0	0	504	514	
2	0	0	0	0	516	519	
3	0	0	0	0	540	517	
4	0	0	0	0	524	511	
5	0	0	0	0	508	511	
6	0	0	0	0	490	508	
7	0	0	0	0	497	507	
8	0	0	0	0	494	511	
9	0	0	0	0	496	513	
10	0	0	0	0	507	508	
11	0	0	0	0	482	507	
12	0	0	0	0	476	509	
13	0	0	0	0	493	514	
14	0	0	0	0	509	515	
15	0	0	0	0	513	517	
0	0	0	0	0	505	516	
1	0	0	0	0	505	514	
2	0	0	0	0	523	511	
3	0	0	0	0	540	515	
4	0	0	0	0	521	510	
5	0	0	0	0	510	507	
6	0	0	0	0	505	510	
7	0	0	0	0	508	510	
8	0	0	0	0	510	511	
9	0	0	0	0	505	512	
10	0	0	0	0	500	509	
11	0	0	0	0	487	511	
12	0	0	0	0	484	511	
13	0	0	0	0	482	516	
14	0	0	0	0	482	519	
15	0	0	0	0	489	516	
0	0	0	0	0	502	518	
1	0	0	0	0	520	517	
2	0	0	0	0	518	514	
3	0	0	0	0	536	508	
4	0	0	0	0	555	510	
5	0	0	0	0	541	508	
6	0	0	0	0	507	509	
7	0	0	0	0	483	508	
8	0	0	0	0	492	511	
9	0	0	0	0	498	514	
10	0	0	0	0	506	510	
11	0	0	0	0	499	508	
12	0	0	0	0	493	508	
13	0	0	0	0	496	511	
14	0	0	0	0	500	510	
15	0	0	0	0	489	511	
0	0	0	0	0	496	507	
1	0	0	0	0	504	504	
2	0	0	0	0	506	504	
3	0	0	0	0	508	513	
4	0	0	0	0	510	520	
5	0	0	0	0	507	528	
6	0	0	0	0	505	523	
7	0	0	0	0	506	516	
8	0	0	0	0	508	508	
9	0	0	0	0	514	507	
10	0	0	0	0	510	512	
11	0	0	0	0	507	522	
12	0	0	0	0	506	524	
13	0	0	0	0	503	523	
14	0	0	0	0	499	514	
15	0	0	0	0	507	505	
0	0	0	0	0	502	504	
1	0	0	0	0	502	507	
2	0	0	0	0	510	508	
3	0	0	0	0	515	509	
4	0	0	0	0	501	505	
5	0	0	0	0	503	505	
6	0	0	0	0	512	508	
7	0	0	0	0	519	510	
8	0	0	0	0	508	510	
9	0	0	0	0	504	511	
10	0	0	0	0	505	508	
11	0	0	0	0	503	511	
12	0	0	0	0	502	512	
13	0	0	0	0	500	515	
14	0	0	0	0	505	514	
15	0	0	0	0	508	515	
0	0	0	0	0	505	515	
1	0	0	0	0	503	513	
2	0	0	0	0	503	518	
3	0	0	0	0	499	516	
4	0	0	0	0	508	516	
5	0	0	0	0	513	520	
6	0	0	0	0	517	520	
7	0	0	0	0	515	515	
8	0	0	0	0	508	508	
9	0	0	0	0	504	505	
10	0	0	0	0	506	509	
11	0	0	0	0	515	513	
12	0	0	0	0	514	511	
13	0	0	0	0	504	508	
14	0	0	0	0	490	508	
15	0	0	0	0	512	507	
0	0	0	0	0	510	505	
1	0	0	0	0	490	505	
2	0	0	0	0	475	507	
3	0	0	0	0	479	510	
4	0	0	0	0	498	511	
5	0	0	0	0	504	511	
6	0	0	0	0	510	510	
7	0	0	0	0	508	514	
8	0	0	0	0	510	516	
9	0	0	0	0	513	514	
10	0	0	0	0	510	512	
11	0	0	0	0	505	512	
12	0	0	0	0	503	512	
13	0	0	0	0	500	513	
14	0	0	0	0	502	515	
15	0	0	0	0	505	518	
0	0	0	0	0	511	520	
1	0	0	0	0	519	518	
2	0	0	0	0	511	515	
3	0	0	0	0	514	510	
4	0	0	0	0	510	508	
5	0	0	0	0	514	508	
6	0	0	0	0	502	508	
7	0	0	0	0	484	508	
8	0	0	0	0	504	509	
9	0	0	0	0	523	511	
10	0	0	0	0	510	510	
11	0	0	0	0	504	508	
12	0	0	0	0	499	509	
13	0	0	0	0	500	510	
14	0	0	0	0	513	513	
15	0	0	0	0	516	513	
0	0	0	0	0	499	513	
1	0	0	0	0	504	515	
2	0	0	0	0	497	512	
3	0	0	0	0	510	514	
4	0	0	0	0	502	507	
5	0	0	0	0	502	510	
6	0	0	0	0	515	517	
7	0	0	0	0	522	521	
8	0	0	0	0	511	520	
9	0	0	0	0	492	515	
10	0	0	0	0	485	513	
11	0	0	0	0	491	513	
12	0	0	0	0	494	507	
13	0	0	0	0	498	504	
14	0	0	0	0	515	508	
15	0	0	0	0	521	508	
0	0	0	0	0	513	509	
1	0	0	0	0	508	512	
2	0	0	0	0	507	512	
3	0	0	0	0	508	508	
4	0	0	0	0	508	510	
5	0	0	0	0	507	516	
6	0	0	0	0	502	519	
7	0	0	0	0	505	517	
8	0	0	0	0	510	516	
9	0	0	0	0	517	515	
10	0	0	0	0	513	513	
11	0	0	0	0	511	512	
12	0	0	0	0	503	509	
13	0	0	0	0	495	510	
14	0	0	0	0	486	508	
15	0	0	0	0	480	504	
0	0	0	0	0	494	508	
1	0	0	0	0	509	510	
2	0	0	0	0	510	512	
3	0	0	0	0	512	513	
4	0	0	0	0	515	512	
5	0	0	0	0	516	510	
6	0	0	0	0	512	510	
7	0	0	0	0	505	512	
8	0	0	0	0	504	515	
9	0	0	0	0	504	513	
10	0	0	0	0	502	515	
11	0	0	0	0	496	510	
12	0	0	0	0	487	506	
13	0	0	0	0	491	508	
14	0	0	0	0	500	514	
15	0	0	0	0	510	529	
0	0	0	0	0	519	529	
1	0	0	0	0	544	526	
2	0	0	0	0	549	515	
3	0	0	0	0	511	505	
4	0	0	0	0	485	497	
5	0	0	0	0	486	502	
6	0	0	0	0	496	504	
7	0	0	0	0	508	507	
8	0	0	0	0	505	509	
9	0	0	0	0	510	512	
10	0	0	0	0	505	512	
11	0	0	0	0	498	512	
12	0	0	0	0	498	515	
13	0	0	0	0	499	513	
14	0	0	0	0	499	515	
15	0	0	0	0	500	512	
0	0	0	0	0	502	513	
1	0	0	0	0	502	512	
2	0	0	0	0	511	509	
3	0	0	0	0	522	509	
4	0	0	0	0	527	509	
5	0	0	0	0	518	509	
6	0	0	0	0	517	509	
7	0	0	0	0	509	509	
8	0	0	0	0	504	513	
9	0	0	0	0	492	518	
10	0	0	0	0	479	516	
11	0	0	0	0	487	510	
12	0	0	0	0	494	509	
13	0	0	0	0	499	512	
14	0	0	0	0	495	510	
15	0	0	0	0	498	513	
0	0	0	0	0	500	514	
1	0	0	0	0	499	518	
2	0	0	0	0	502	518	
3	0	0	0	0	515	515	
4	0	0	0	0	529	514	
5	0	0	0	0	540	514	
6	0	0	0	0	550	508	
7	0	0	0	0	551	510	
8	0	0	0	0	509	507	
9	0	0	0	0	476	508	
10	0	0	0	0	462	506	
11	0	0	0	0	465	505	
12	0	0	0	0	492	507	
13	0	0	0	0	502	506	
14	0	0	0	0	502	512	
15	0	0	0	0	505	512	
0	0	0	0	0	507	515	
1	0	0	0	0	509	517	
2	0	0	0	0	508	516	
3	0	0	0	0	508	516	
4	0	0	0	0	513	515	
5	0	0	0	0	512	512	
6	0	0	0	0	511	505	
7	0	0	0	0	504	502	
8	0	0	0	0	507	505	
9	0	0	0	0	502	513	
10	0	0	0	0	497	517	
11	0	0	0	0	499	519	
12	0	0	0	0	503	517	
13	0	0	0	0	507	514	
14	0	0	0	0	505	515	
15	0	0	0	0	504	519	
0	0	0	0	0	505	513	
1	0	0	0	0	513	515	
2	0	0	0	0	514	515	
3	0	0	0	0	495	510	
4	0	0	0	0	499	504	
5	0	0	0	0	529	505	
6	0	0	0	0	543	508	
7	0	0	0	0	518	508	
8	0	0	0	0	483	507	
9	0	0	0	0	466	511	
10	0	0	0	0	483	515	
11	0	0	0	0	490	514	
12	0	0	0	0	498	513	
13	0	0	0	0	502	511	
14	0	0	0	0	515	511	
15	0	0	0	0	526	508	
0	0	0	0	0	529	513	
1	0	0	0	0	528	520	
2	0	0	0	0	517	524	
3	0	0	0	0	504	516	
4	0	0	0	0	503	509	
5	0	0	0	0	498	507	
6	0	0	0	0	485	507	
7	0	0	0	0	495	512	
8	0	0	0	0	513	513	
9	0	0	0	0	529	514	
10	0	0	0	0	521	512	
11	0	0	0	0	510	509	
12	0	0	0	0	497	506	
13	0	0	0	0	489	503	
14	0	0	0	0	491	509	
15	0	0	0	0	500	507	
0	0	0	0	0	507	507	
1	0	0	0	0	505	507	
2	0	0	0	0	504	509	
3	0	0	0	0	504	508	
4	0	0	0	0	504	510	
5	0	0	0	0	503	515	
6	0	0	0	0	507	521	
7	0	0	0	0	508	531	
8	0	0	0	0	505	527	
9	0	0	0	0	504	521	
10	0	0	0	0	504	516	
11	0	0	0	0	502	513	
12	0	0	0	0	504	513	
13	0	0	0	0	504	507	
14	0	0	0	0	505	502	
15	0	0	0	0	506	505	
0	0	0	0	0	507	511	
1	0	0	0	0	508	513	
2	0	0	0	0	505	519	
3	0	0	0	0	505	519	
4	0	0	0	0	506	515	
5	0	0	0	0	506	512	
6	0	0	0	0	506	506	
7	0	0	0	0	505	508	
8	0	0	0	0	504	509	
9	0	0	0	0	507	505	
10	0	0	0	0	505	505	
11	0	0	0	0	505	507	
12	0	0	0	0	504	516	
13	0	0	0	0	506	524	
14	0	0	0	0	508	520	
15	0	0	0	0	506	505	
0	0	0	0	0	505	502	
1	0	0	0	0	507	505	
2	0	0	0	0	508	511	
3	0	0	0	0	508	512	
4	0	0	0	0	504	511	
5	0	0	0	0	504	514	
6	0	0	0	0	504	523	
7	0	0	0	0	504	524	
8	0	0	0	0	503	516	
9	0	0	0	0	504	508	
10	0	0	0	0	505	508	
11	0	0	0	0	505	509	
12	0	0	0	0	507	511	
13	0	0	0	0	508	512	
14	0	0	0	0	502	514	
15	0	0	0	0	498	512	
0	0	0	0	0	513	511	
1	0	0	0	0	509	507	
2	0	0	0	0	508	504	
3	0	0	0	0	508	504	
4	0	0	0	0	512	511	
5	0	0	0	0	534	515	
6	0	0	0	0	545	512	
7	0	0	0	0	529	512	
8	0	0	0	0	504	516	
9	0	0	0	0	458	515	
10	0	0	0	0	447	505	
11	0	0	0	0	459	504	
12	0	0	0	0	481	511	
13	0	0	0	0	521	517	
14	0	0	0	0	550	514	
15	0	0	0	0	547	510	
0	0	0	0	0	529	508	
1	0	0	0	0	500	503	
2	0	0	0	0	482	508	
3	0	0	0	0	482	512	
4	0	0	0	0	507	514	
5	0	0	0	0	511	516	
6	0	0	0	0	495	516	
7	0	0	0	0	480	513	
8	0	0	0	0	504	515	
9	0	0	0	0	508	514	
10	0	0	0	0	506	514	
11	0	0	0	0	509	513	
12	0	0	0	0	512	512	
13	0	0	0	0	512	511	
14	0	0	0	0	509	509	
15	0	0	0	0	509	509	
0	0	0	0	0	508	510	
1	0	0	0	0	506	511	
2	0	0	0	0	505	513	
3	0	0	0	0	505	515	
4	0	0	0	0	505	512	
5	0	0	0	0	507	511	
6	0	0	0	0	510	517	
7	0	0	0	0	505	516	
8	0	0	0	0	501	516	
9	0	0	0	0	494	514	
10	0	0	0	0	496	512	
11	0	0	0	0	489	512	
12	0	0	0	0	493	513	
13	0	0	0	0	498	514	
14	0	0	0	0	516	513	
15	0	0	0	0	520	515	
0	0	0	0	0	537	512	
1	0	0	0	0	552	508	
2	0	0	0	0	527	502	
3	0	0	0	0	500	500	
4	0	0	0	0	485	502	
5	0	0	0	0	484	507	
6	0	0	0	0	481	512	
7	0	0	0	0	481	515	
8	0	0	0	0	492	517	
9	0	0	0	0	518	517	
10	0	0	0	0	515	515	
11	0	0	0	0	509	514	
12	0	0	0	0	502	511	
13	0	0	0	0	503	512	
14	0	0	0	0	518	515	
15	0	0	0	0	523	511	
0	0	0	0	0	522	511	
1	0	0	0	0	505	514	
2	0	0	0	0	504	515	
3	0	0	0	0	522	517	
4	0	0	0	0	522	516	
5	0	0	0	0	521	511	
6	0	0	0	0	538	508	
7	0	0	0	0	486	503	
8	0	0	0	0	462	499	
9	0	0	0	0	454	506	
10	0	0	0	0	487	507	
11	0	0	0	0	513	508	
12	0	0	0	0	516	508	
13	0	0	0	0	512	509	
14	0	0	0	0	503	513	
15	0	0	0	0	521	513	
0	0	0	0	0	535	515	
1	0	0	0	0	527	509	
2	0	0	0	0	526	513	
3	0	0	0	0	499	519	
4	0	0	0	0	451	515	
5	0	0	0	0	463	510	
6	0	0	0	0	478	510	
7	0	0	0	0	488	507	
8	0	0	0	0	497	507	
9	0	0	0	0	495	507	
10	0	0	0	0	495	504	
11	0	0	0	0	497	506	
12	0	0	0	0	508	520	
13	0	0	0	0	514	528	
14	0	0	0	0	517	530	
15	0	0	0	0	517	520	
0	0	0	0	0	519	515	
1	0	0	0	0	521	511	
2	0	0	0	0	521	511	
3	0	0	0	0	522	514	
4	0	0	0	0	512	508	
5	0	0	0	0	493	505	
6	0	0	0	0	502	507	
7	0	0	0	0	510	508	
8	0	0	0	0	510	507	
9	0	0	0	0	507	509	
10	0	0	0	0	507	514	
11	0	0	0	0	508	515	
12	0	0	0	0	506	523	
13	0	0	0	0	503	518	
14	0	0	0	0	502	511	
15	0	0	0	0	504	505	
0	0	0	0	0	504	509	
1	0	0	0	0	508	508	
2	0	0	0	0	510	508	
3	0	0	0	0	510	513	
4	0	0	0	0	509	521	
5	0	0	0	0	505	520	
6	0	0	0	0	497	516	
7	0	0	0	0	499	512	
8	0	0	0	0	507	512	
9	0	0	0	0	508	507	
10	0	0	0	0	508	507	
11	0	0	0	0	508	504	
12	0	0	0	0	508	501	
13	0	0	0	0	499	505	
14	0	0	0	0	503	510	
15	0	0	0	0	504	515	
0	0	0	0	0	507	514	
1	0	0	0	0	508	512	
2	0	0	0	0	510	509	
3	0	0	0	0	508	511	
4	0	0	0	0	502	511	
5	0	0	0	0	504	512	
6	0	0	0	0	504	514	
7	0	0	0	0	504	515	
8	0	0	0	0	505	517	
9	0	0	0	0	504	523	
10	0	0	0	0	496	527	
11	0	0	0	0	484	536	
12	0	0	0	0	485	526	
13	0	0	0	0	498	513	
14	0	0	0	0	507	508	
15	0	0	0	0	518	508	
0	0	0	0	0	533	511	
1	0	0	0	0	575	513	
2	0	0	0	0	561	505	
3	0	0	0	0	491	490	
4	0	0	0	0	423	492	
5	0	0	0	0	444	503	
6	0	0	0	0	481	511	
7	0	0	0	0	519	515	
8	0	0	0	0	535	515	
9	0	0	0	0	560	511	
10	0	0	0	0	558	506	
11	0	0	0	0	497	502	
12	0	0	0	0	476	505	
13	0	0	0	0	485	510	
14	0	0	0	0	494	514	
15	0	0	0	0	499	513	
0	0	0	0	0	501	515	
1	0	0	0	0	501	514	
2	0	0	0	0	502	515	
3	0	0	0	0	502	514	
4	0	0	0	0	504	514	
5	0	0	0	0	507	517	
6	0	0	0	0	507	519	
7	0	0	0	0	505	516	
8	0	0	0	0	500	515	
9	0	0	0	0	497	512	
10	0	0	0	0	499	512	
11	0	0	0	0	512	513	
12	0	0	0	0	505	510	
13	0	0	0	0	508	510	
14	0	0	0	0	511	511	
15	0	0	0	0	515	513	
0	0	0	0	0	514	512	
1	0	0	0	0	509	510	
2	0	0	0	0	502	511	
3	0	0	0	0	516	509	
4	0	0	0	0	517	511	
5	0	0	0	0	521	511	
6	0	0	0	0	512	511	
7	0	0	0	0	502	510	
8	0	0	0	0	495	512	
9	0	0	0	0	499	511	
10	0	0	0	0	498	511	
11	0	0	0	0	505	509	
12	0	0	0	0	502	510	
13	0	0	0	0	496	510	
14	0	0	0	0	496	510	
15	0	0	0	0	503	509	
0	0	0	0	0	504	511	
1	0	0	0	0	500	513	
2	0	0	0	0	495	518	
3	0	0	0	0	488	519	
4	0	0	0	0	487	519	
5	0	0	0	0	488	522	
6	0	0	0	0	493	524	
7	0	0	0	0	519	525	
8	0	0	0	0	547	518	
9	0	0	0	0	555	510	
10	0	0	0	0	540	504	
11	0	0	0	0	519	496	
12	0	0	0	0	524	495	
13	0	0	0	0	503	500	
14	0	0	0	0	499	505	
15	0	0	0	0	487	508	
0	0	0	0	0	483	509	
1	0	0	0	0	506	516	
2	0	0	0	0	538	516	
3	0	0	0	0	545	516	
4	0	0	0	0	533	518	
5	0	0	0	0	505	520	
6	0	0	0	0	457	518	
7	0	0	0	0	477	515	
8	0	0	0	0	494	512	
9	0	0	0	0	481	504	
10	0	0	0	0	463	493	
11	0	0	0	0	437	507	
12	0	0	0	0	501	514	
13	0	0	0	0	493	510	
14	0	0	0	0	490	507	
15	0	0	0	0	511	504	
0	0	0	0	0	520	508	
1	0	0	0	0	510	513	
2	0	0	0	0	509	515	
3	0	0	0	0	508	517	
4	0	0	0	0	508	515	
5	0	0	0	0	521	517	
6	0	0	0	0	529	519	
7	0	0	0	0	546	519	
8	0	0	0	0	559	517	
9	0	0	0	0	543	520	
10	0	0	0	0	506	515	
11	0	0	0	0	496	511	
12	0	0	0	0	489	504	
13	0	0	0	0	508	496	
14	0	0	0	0	467	503	
15	0	0	0	0	475	505	
0	0	0	0	0	494	510	
1	0	0	0	0	501	517	
2	0	0	0	0	487	524	
3	0	0	0	0	472	527	
4	0	0	0	0	476	532	
5	0	0	0	0	531	530	
6	0	0	0	0	563	527	
7	0	0	0	0	634	527	
8	0	0	0	0	640	519	
9	0	0	0	0	591	506	
10	0	0	0	0	541	475	
11	0	0	0	0	485	476	
12	0	0	0	0	420	485	
13	0	0	0	0	396	481	
14	0	0	0	0	368	490	
15	0	0	0	0	368	499	
0	0	0	0	0	423	509	
1	0	0	0	0	460	509	
2	0	0	0	0	495	510	
3	0	0	0	0	515	516	
4	0	0	0	0	524	524	
5	0	0	0	0	531	533	
6	0	0	0	0	529	542	
7	0	0	0	0	522	543	
8	0	0	0	0	513	530	
9	0	0	0	0	510	514	
10	0	0	0	0	518	510	
11	0	0	0	0	526	514	
12	0	0	0	0	531	519	
13	0	0	0	0	541	519	
14	0	0	0	0	561	517	
15	0	0	0	0	570	499	
0	0	0	0	0	521	496	
1	0	0	0	0	505	503	
2	0	0	0	0	498	496	
3	0	0	0	0	496	495	
4	0	0	0	0	484	499	
5	0	0	0	0	497	511	
6	0	0	0	0	491	524	
7	0	0	0	0	488	532	
8	0	0	0	0	479	531	
9	0	0	0	0	483	531	
10	0	0	0	0	505	535	
11	0	0	0	0	566	530	
12	0	0	0	0	582	510	
13	0	0	0	0	529	486	
14	0	0	0	0	509	489	
15	0	0	0	0	487	505	
0	0	0	0	0	531	510	
1	0	0	0	0	511	499	
2	0	0	0	0	449	496	
3	0	0	0	0	414	500	
4	0	0	0	0	444	508	
5	0	0	0	0	486	513	
6	0	0	0	0	502	515	
7	0	0	0	0	520	513	
8	0	0	0	0	505	513	
9	0	0	0	0	502	517	
10	0	0	0	0	524	521	
11	0	0	0	0	559	520	
12	0	0	0	0	530	517	
13	0	0	0	0	493	507	
14	0	0	0	0	507	507	
15	0	0	0	0	526	511	
0	0	0	0	0	524	512	
1	0	0	0	0	486	509	
2	0	0	0	0	498	511	
3	0	0	0	0	510	507	
4	0	0	0	0	510	502	
5	0	0	0	0	482	510	
6	0	0	0	0	463	513	
7	0	0	0	0	480	515	
8	0	0	0	0	502	516	
9	0	0	0	0	509	512	
10	0	0	0	0	510	515	
11	0	0	0	0	507	517	
12	0	0	0	0	512	518	
13	0	0	0	0	515	517	
14	0	0	0	0	520	515	
15	0	0	0	0	511	516	
0	0	0	0	0	503	514	
1	0	0	0	0	508	521	
2	0	0	0	0	514	520	
3	0	0	0	0	514	511	
4	0	0	0	0	523	504	
5	0	0	0	0	525	508	
6	0	0	0	0	524	513	
7	0	0	0	0	511	517	
8	0	0	0	0	515	513	
9	0	0	0	0	517	508	
10	0	0	0	0	518	505	
11	0	0	0	0	474	502	
12	0	0	0	0	459	492	
13	0	0	0	0	483	493	
14	0	0	0	0	486	502	
15	0	0	0	0	481	513	
0	0	0	0	0	496	519	
1	0	0	0	0	505	519	
2	0	0	0	0	511	517	
3	0	0	0	0	511	520	
4	0	0	0	0	511	517	
5	0	0	0	0	510	513	
6	0	0	0	0	512	512	
7	0	0	0	0	510	513	
8	0	0	0	0	510	517	
9	0	0	0	0	512	516	
10	0	0	0	0	508	516	
11	0	0	0	0	512	512	
12	0	0	0	0	502	509	
13	0	0	0	0	505	515	
14	0	0	0	0	505	518	
15	0	0	0	0	492	524	
0	0	0	0	0	487	516	
1	0	0	0	0	494	510	
2	0	0	0	0	511	509	
3	0	0	0	0	520	504	
4	0	0	0	0	552	503	
5	0	0	0	0	530	509	
6	0	0	0	0	531	512	
7	0	0	0	0	546	513	
8	0	0	0	0	523	502	
9	0	0	0	0	475	501	
10	0	0	0	0	474	504	
11	0	0	0	0	512	511	
12	0	0	0	0	524	517	
13	0	0	0	0	476	511	
14	0	0	0	0	449	505	
15	0	0	0	0	458	505	
0	0	0	0	0	496	513	
1	0	0	0	0	507	513	
2	0	0	0	0	515	512	
3	0	0	0	0	506	516	
4	0	0	0	0	502	516	
5	0	0	0	0	505	511	
6	0	0	0	0	515	512	
7	0	0	0	0	523	512	
8	0	0	0	0	510	511	
9	0	0	0	0	499	510	
10	0	0	0	0	499	515	
11	0	0	0	0	505	519	
12	0	0	0	0	509	525	
13	0	0	0	0	510	519	
14	0	0	0	0	511	511	
15	0	0	0	0	508	510	
0	0	0	0	0	507	511	
1	0	0	0	0	507	515	
2	0	0	0	0	505	516	
3	0	0	0	0	508	514	
4	0	0	0	0	508	507	
5	0	0	0	0	507	510	
6	0	0	0	0	503	508	
7	0	0	0	0	505	504	
8	0	0	0	0	507	507	
9	0	0	0	0	508	508	
10	0	0	0	0	505	509	
11	0	0	0	0	504	510	
12	0	0	0	0	505	511	
13	0	0	0	0	505	513	
14	0	0	0	0	507	512	
15	0	0	0	0	507	514	
0	0	0	0	0	499	513	
1	0	0	0	0	498	515	
2	0	0	0	0	502	519	
3	0	0	0	0	504	519	
4	0	0	0	0	506	517	
5	0	0	0	0	512	515	
6	0	0	0	0	520	514	
7	0	0	0	0	515	511	
8	0	0	0	0	519	508	
9	0	0	0	0	507	504	
10	0	0	0	0	494	506	
11	0	0	0	0	486	505	
12	0	0	0	0	497	511	
13	0	0	0	0	505	511	
14	0	0	0	0	512	513	
15	0	0	0	0	513	512	
0	0	0	0	0	519	511	
1	0	0	0	0	523	512	
2	0	0	0	0	488	510	
3	0	0	0	0	474	511	
4	0	0	0	0	488	511	
5	0	0	0	0	496	513	
6	0	0	0	0	511	512	
7	0	0	0	0	527	512	
8	0	0	0	0	527	513	
9	0	0	0	0	516	510	
10	0	0	0	0	504	508	
11	0	0	0	0	494	507	
12	0	0	0	0	496	512	
13	0	0	0	0	496	519	
14	0	0	0	0	497	521	
15	0	0	0	0	507	521	
0	0	0	0	0	515	518	
1	0	0	0	0	498	510	
2	0	0	0	0	501	504	
3	0	0	0	0	499	506	
4	0	0	0	0	513	509	
5	0	0	0	0	517	512	
6	0	0	0	0	519	515	
7	0	0	0	0	514	510	
8	0	0	0	0	494	509	
9	0	0	0	0	492	508	
10	0	0	0	0	492	509	
11	0	0	0	0	496	511	
12	0	0	0	0	504	509	
13	0	0	0	0	511	512	
14	0	0	0	0	512	515	
15	0	0	0	0	511	522	
0	0	0	0	0	513	516	
1	0	0	0	0	511	513	
2	0	0	0	0	513	513	
3	0	0	0	0	498	514	
4	0	0	0	0	507	516	
5	0	0	0	0	514	509	
6	0	0	0	0	514	505	
7	0	0	0	0	505	505	
8	0	0	0	0	504	506	
9	0	0	0	0	507	509	
10	0	0	0	0	496	513	
11	0	0	0	0	496	515	
12	0	0	0	0	499	517	
13	0	0	0	0	509	520	
14	0	0	0	0	504	518	
15	0	0	0	0	501	512	
0	0	0	0	0	504	505	
1	0	0	0	0	510	510	
2	0	0	0	0	507	504	
3	0	0	0	0	508	509	
4	0	0	0	0	505	513	
5	0	0	0	0	502	512	
6	0	0	0	0	508	515	
7	0	0	0	0	512	515	
8	0	0	0	0	507	509	
9	0	0	0	0	510	509	
10	0	0	0	0	515	508	
11	0	0	0	0	510	513	
12	0	0	0	0	481	514	
13	0	0	0	0	489	512	
14	0	0	0	0	505	510	
15	0	0	0	0	505	507	
0	0	0	0	0	499	511	
1	0	0	0	0	502	511	
2	0	0	0	0	507	512	
3	0	0	0	0	507	511	
4	0	0	0	0	509	509	
5	0	0	0	0	509	513	
6	0	0	0	0	506	513	
7	0	0	0	0	508	512	
8	0	0	0	0	508	511	
9	0	0	0	0	507	512	
10	0	0	0	0	506	516	
11	0	0	0	0	505	519	
12	0	0	0	0	505	514	
13	0	0	0	0	503	513	
14	0	0	0	0	500	518	
15	0	0	0	0	503	520	
0	0	0	0	0	507	515	
1	0	0	0	0	508	512	
2	0	0	0	0	516	508	
3	0	0	0	0	510	507	
4	0	0	0	0	511	504	
5	0	0	0	0	511	504	
6	0	0	0	0	507	511	
7	0	0	0	0	510	514	
8	0	0	0	0	500	516	
9	0	0	0	0	502	511	
10	0	0	0	0	496	506	
11	0	0	0	0	503	508	
12	0	0	0	0	509	505	
13	0	0	0	0	501	507	
14	0	0	0	0	488	510	
15	0	0	0	0	501	512	
0	0	0	0	0	507	516	
1	0	0	0	0	504	523	
2	0	0	0	0	505	527	
3	0	0	0	0	508	518	
4	0	0	0	0	513	515	
5	0	0	0	0	533	507	
6	0	0	0	0	520	508	
7	0	0	0	0	506	507	
8	0	0	0	0	504	506	
9	0	0	0	0	503	505	
10	0	0	0	0	508	509	
11	0	0	0	0	496	510	
12	0	0	0	0	494	515	
13	0	0	0	0	510	512	
14	0	0	0	0	500	510	
15	0	0	0	0	477	509	
0	0	0	0	0	463	509	
1	0	0	0	0	467	512	
2	0	0	0	0	485	515	
3	0	0	0	0	491	517	
4	0	0	0	0	519	519	
5	0	0	0	0	551	518	
6	0	0	0	0	567	511	
7	0	0	0	0	563	511	
8	0	0	0	0	536	508	
9	0	0	0	0	520	505	
10	0	0	0	0	504	508	
11	0	0	0	0	479	510	
12	0	0	0	0	477	512	
13	0	0	0	0	491	513	
14	0	0	0	0	489	511	
15	0	0	0	0	499	511	
0	0	0	0	0	505	511	
1	0	0	0	0	499	512	
2	0	0	0	0	504	511	
3	0	0	0	0	505	512	
4	0	0	0	0	502	514	
5	0	0	0	0	506	515	
6	0	0	0	0	508	511	
7	0	0	0	0	509	511	
8	0	0	0	0	511	512	
9	0	0	0	0	508	511	
10	0	0	0	0	503	510	
11	0	0	0	0	497	508	
12	0	0	0	0	504	510	
13	0	0	0	0	505	513	
14	0	0	0	0	504	510	
15	0	0	0	0	506	509	
0	0	0	0	0	505	509	
1	0	0	0	0	509	509	
2	0	0	0	0	505	508	
3	0	0	0	0	506	510	
4	0	0	0	0	508	511	
5	0	0	0	0	507	516	
6	0	0	0	0	506	517	
7	0	0	0	0	504	513	
8	0	0	0	0	504	511	
9	0	0	0	0	507	512	
10	0	0	0	0	506	514	
11	0	0	0	0	507	515	
12	0	0	0	0	505	508	
13	0	0	0	0	507	510	
14	0	0	0	0	505	527	
15	0	0	0	0	505	535	
0	0	0	0	0	505	526	
1	0	0	0	0	503	510	
2	0	0	0	0	502	507	
3	0	0	0	0	507	504	
4	0	0	0	0	505	505	
5	0	0	0	0	506	510	
6	0	0	0	0	504	508	
7	0	0	0	0	503	508	
8	0	0	0	0	500	511	
9	0	0	0	0	496	514	
10	0	0	0	0	497	515	
11	0	0	0	0	501	515	
12	0	0	0	0	515	518	
13	0	0	0	0	529	518	
14	0	0	0	0	529	512	
15	0	0	0	0	543	508	
0	0	0	0	0	552	503	
1	0	0	0	0	497	504	
2	0	0	0	0	446	502	
3	0	0	0	0	459	499	
4	0	0	0	0	503	512	
5	0	0	0	0	519	518	
6	0	0	0	0	542	517	
7	0	0	0	0	516	512	
8	0	0	0	0	475	507	
9	0	0	0	0	466	509	
10	0	0	0	0	451	511	
11	0	0	0	0	483	519	
12	0	0	0	0	496	518	
13	0	0	0	0	531	514	
14	0	0	0	0	557	506	
15	0	0	0	0	543	511	
0	0	0	0	0	527	515	
1	0	0	0	0	521	516	
2	0	0	0	0	500	517	
3	0	0	0	0	506	511	
4	0	0	0	0	518	504	
5	0	0	0	0	505	503	
6	0	0	0	0	492	501	
7	0	0	0	0	463	510	
8	0	0	0	0	461	515	
9	0	0	0	0	491	516	
10	0	0	0	0	507	515	
11	0	0	0	0	504	512	
12	0	0	0	0	531	512	
13	0	0	0	0	523	513	
14	0	0	0	0	524	517	
15	0	0	0	0	524	515	
0	0	0	0	0	518	516	
1	0	0	0	0	505	515	
2	0	0	0	0	495	515	
3	0	0	0	0	490	515	
4	0	0	0	0	483	514	
5	0	0	0	0	487	509	
6	0	0	0	0	510	510	
7	0	0	0	0	530	509	
8	0	0	0	0	519	513	
9	0	0	0	0	498	509	
10	0	0	0	0	494	507	
11	0	0	0	0	495	508	
12	0	0	0	0	504	511	
13	0	0	0	0	508	509	
14	0	0	0	0	507	506	
15	0	0	0	0	508	504	
0	0	0	0	0	508	499	
1	0	0	0	0	508	500	
2	0	0	0	0	509	504	
3	0	0	0	0	508	515	
4	0	0	0	0	507	527	
5	0	0	0	0	504	532	
6	0	0	0	0	506	535	
7	0	0	0	0	504	529	
8	0	0	0	0	504	514	
9	0	0	0	0	503	506	
10	0	0	0	0	504	504	
11	0	0	0	0	503	507	
12	0	0	0	0	507	512	
13	0	0	0	0	510	509	
14	0	0	0	0	509	513	
15	0	0	0	0	504	510	
0	0	0	0	0	502	509	
1	0	0	0	0	506	509	
2	0	0	0	0	507	509	
3	0	0	0	0	503	511	
4	0	0	0	0	494	513	
5	0	0	0	0	496	515	
6	0	0	0	0	509	516	
7	0	0	0	0	510	512	
8	0	0	0	0	525	510	
9	0	0	0	0	537	511	
10	0	0	0	0	543	511	
11	0	0	0	0	528	510	
12	0	0	0	0	472	507	
13	0	0	0	0	451	503	
14	0	0	0	0	451	507	
15	0	0	0	0	491	512	
0	0	0	0	0	517	517	
1	0	0	0	0	510	515	
2	0	0	0	0	508	515	
3	0	0	0	0	517	514	
4	0	0	0	0	519	511	
5	0	0	0	0	517	510	
6	0	0	0	0	481	504	
7	0	0	0	0	478	505	
8	0	0	0	0	515	508	
9	0	0	0	0	513	509	
10	0	0	0	0	500	518	
11	0	0	0	0	526	520	
12	0	0	0	0	534	517	
13	0	0	0	0	528	511	
14	0	0	0	0	507	517	
15	0	0	0	0	505	521	
0	0	0	0	0	541	524	
1	0	0	0	0	558	511	
2	0	0	0	0	492	508	
3	0	0	0	0	486	510	
4	0	0	0	0	481	508	
5	0	0	0	0	474	509	
6	0	0	0	0	528	502	
7	0	0	0	0	527	498	
8	0	0	0	0	481	498	
9	0	0	0	0	475	512	
10	0	0	0	0	460	523	
11	0	0	0	0	466	525	
12	0	0	0	0	493	523	
13	0	0	0	0	536	525	
14	0	0	0	0	546	523	
15	0	0	0	0	541	508	
0	0	0	0	0	556	492	
1	0	0	0	0	539	495	
2	0	0	0	0	526	493	
3	0	0	0	0	455	491	
4	0	0	0	0	404	503	
5	0	0	0	0	433	510	
6	0	0	0	0	469	513	
7	0	0	0	0	494	516	
8	0	0	0	0	503	516	
9	0	0	0	0	509	517	
10	0	0	0	0	518	517	
11	0	0	0	0	518	519	
12	0	0	0	0	519	518	
13	0	0	0	0	520	516	
14	0	0	0	0	519	513	
15	0	0	0	0	518	508	
0	0	0	0	0	516	506	
1	0	0	0	0	515	509	
2	0	0	0	0	517	515	
3	0	0	0	0	517	516	
4	0	0	0	0	519	522	
5	0	0	0	0	514	524	
6	0	0	0	0	509	521	
7	0	0	0	0	505	517	
8	0	0	0	0	499	515	
9	0	0	0	0	499	511	
10	0	0	0	0	497	509	
11	0	0	0	0	507	511	
12	0	0	0	0	507	512	
13	0	0	0	0	503	515	
14	0	0	0	0	495	511	
15	0	0	0	0	487	511	
0	0	0	0	0	482	516	
1	0	0	0	0	491	518	
2	0	0	0	0	504	518	
3	0	0	0	0	512	516	
4	0	0	0	0	553	515	
5	0	0	0	0	588	513	
6	0	0	0	0	574	505	
7	0	0	0	0	537	490	
8	0	0	0	0	480	496	
9	0	0	0	0	486	508	
10	0	0	0	0	492	507	
11	0	0	0	0	457	502	
12	0	0	0	0	429	499	
13	0	0	0	0	447	508	
14	0	0	0	0	489	521	
15	0	0	0	0	528	528	
0	0	0	0	0	524	527	
1	0	0	0	0	537	525	
2	0	0	0	0	544	519	
3	0	0	0	0	532	516	
4	0	0	0	0	523	504	
5	0	0	0	0	526	501	
6	0	0	0	0	512	503	
7	0	0	0	0	472	502	
8	0	0	0	0	445	507	
9	0	0	0	0	459	510	
10	0	0	0	0	492	509	
11	0	0	0	0	489	507	
12	0	0	0	0	494	505	
13	0	0	0	0	499	509	
14	0	0	0	0	500	515	
15	0	0	0	0	500	515	
0	0	0	0	0	504	515	
1	0	0	0	0	519	514	
2	0	0	0	0	524	512	
3	0	0	0	0	521	512	
4	0	0	0	0	523	519	
5	0	0	0	0	523	521	
6	0	0	0	0	514	516	
7	0	0	0	0	512	514	
8	0	0	0	0	506	515	
9	0	0	0	0	508	515	
10	0	0	0	0	507	515	
11	0	0	0	0	502	515	
12	0	0	0	0	498	515	
13	0	0	0	0	508	515	
14	0	0	0	0	524	510	
15	0	0	0	0	526	507	
0	0	0	0	0	513	503	
1	0	0	0	0	507	501	
2	0	0	0	0	498	501	
3	0	0	0	0	487	502	
4	0	0	0	0	482	508	
5	0	0	0	0	483	509	
6	0	0	0	0	489	514	
7	0	0	0	0	495	521	
8	0	0	0	0	499	523	
9	0	0	0	0	499	528	
10	0	0	0	0	515	527	
11	0	0	0	0	530	519	
12	0	0	0	0	542	517	
13	0	0	0	0	538	516	
14	0	0	0	0	534	511	
15	0	0	0	0	513	511	
0	0	0	0	0	498	509	
1	0	0	0	0	467	504	
2	0	0	0	0	446	494	
3	0	0	0	0	461	495	
4	0	0	0	0	492	508	
5	0	0	0	0	498	516	
6	0	0	0	0	516	524	
7	0	0	0	0	529	520	
8	0	0	0	0	511	522	
9	0	0	0	0	532	526	
10	0	0	0	0	550	527	
11	0	0	0	0	572	522	
12	0	0	0	0	578	519	
13	0	0	0	0	494	505	
14	0	0	0	0	465	492	
15	0	0	0	0	532	499	
0	0	0	0	0	546	503	
1	0	0	0	0	549	503	
2	0	0	0	0	519	503	
3	0	0	0	0	547	498	
4	0	0	0	0	516	504	
5	0	0	0	0	396	508	
6	0	0	0	0	395	505	
7	0	0	0	0	512	509	
8	0	0	0	0	569	513	
9	0	0	0	0	489	511	
10	0	0	0	0	440	504	
11	0	0	0	0	400	494	
12	0	0	0	0	472	503	
13	0	0	0	0	506	502	
14	0	0	0	0	464	499	
15	0	0	0	0	446	512	
0	0	0	0	0	457	516	
1	0	0	0	0	461	521	
2	0	0	0	0	500	521	
3	0	0	0	0	510	524	
4	0	0	0	0	505	528	
5	0	0	0	0	513	529	
6	0	0	0	0	518	521	
7	0	0	0	0	562	516	
8	0	0	0	0	561	512	
9	0	0	0	0	571	509	
10	0	0	0	0	548	515	
11	0	0	0	0	532	518	
12	0	0	0	0	525	516	
13	0	0	0	0	512	513	
14	0	0	0	0	504	512	
15	0	0	0	0	505	511	
0	0	0	0	0	508	510	
1	0	0	0	0	511	511	
2	0	0	0	0	507	513	
3	0	0	0	0	508	512	
4	0	0	0	0	506	515	
5	0	0	0	0	505	512	
6	0	0	0	0	506	510	
7	0	0	0	0	505	513	
8	0	0	0	0	504	508	
9	0	0	0	0	504	505	
10	0	0	0	0	502	503	
11	0	0	0	0	502	508	
12	0	0	0	0	505	514	
13	0	0	0	0	505	516	
14	0	0	0	0	504	519	
15	0	0	0	0	504	518	
0	0	0	0	0	505	511	
1	0	0	0	0	504	509	
2	0	0	0	0	503	514	
3	0	0	0	0	504	510	
4	0	0	0	0	502	509	
5	0	0	0	0	503	507	
6	0	0	0	0	501	508	
7	0	0	0	0	506	513	
8	0	0	0	0	507	511	
9	0	0	0	0	508	510	
10	0	0	0	0	504	519	
11	0	0	0	0	508	515	
12	0	0	0	0	506	512	
13	0	0	0	0	510	510	
14	0	0	0	0	497	508	
15	0	0	0	0	503	505	
0	0	0	0	0	498	508	
1	0	0	0	0	497	511	
2	0	0	0	0	504	511	
3	0	0	0	0	503	508	
4	0	0	0	0	502	510	
5	0	0	0	0	508	511	
6	0	0	0	0	511	515	
7	0	0	0	0	513	524	
8	0	0	0	0	510	523	
9	0	0	0	0	496	526	
10	0	0	0	0	489	523	
11	0	0	0	0	499	521	
12	0	0	0	0	502	513	
13	0	0	0	0	483	508	
14	0	0	0	0	492	508	
15	0	0	0	0	556	508	
0	0	0	0	0	576	511	
1	0	0	0	0	539	502	
2	0	0	0	0	508	495	
3	0	0	0	0	542	507	
4	0	0	0	0	540	505	
5	0	0	0	0	472	509	
6	0	0	0	0	423	494	
7	0	0	0	0	430	504	
8	0	0	0	0	486	520	
9	0	0	0	0	503	521	
10	0	0	0	0	508	515	
11	0	0	0	0	494	516	
12	0	0	0	0	490	516	
13	0	0	0	0	514	520	
14	0	0	0	0	509	519	
15	0	0	0	0	504	508	
0	0	0	0	0	513	510	
1	0	0	0	0	524	510	
2	0	0	0	0	521	509	
3	0	0	0	0	510	511	
4	0	0	0	0	508	513	
5	0	0	0	0	513	512	
6	0	0	0	0	508	512	
7	0	0	0	0	505	517	
8	0	0	0	0	505	515	
9	0	0	0	0	507	514	
10	0	0	0	0	507	515	
11	0	0	0	0	505	515	
12	0	0	0	0	501	514	
13	0	0	0	0	496	513	
14	0	0	0	0	494	511	
15	0	0	0	0	504	514	
0	0	0	0	0	511	516	
1	0	0	0	0	511	516	
2	0	0	0	0	515	511	
3	0	0	0	0	523	509	
4	0	0	0	0	507	505	
5	0	0	0	0	495	507	
6	0	0	0	0	505	508	
7	0	0	0	0	506	507	
8	0	0	0	0	500	506	
9	0	0	0	0	545	513	
10	0	0	0	0	543	512	
11	0	0	0	0	512	511	
12	0	0	0	0	494	512	
13	0	0	0	0	487	508	
14	0	0	0	0	479	508	
15	0	0	0	0	466	504	
0	0	0	0	0	461	510	
1	0	0	0	0	496	512	
2	0	0	0	0	511	518	
3	0	0	0	0	509	520	
4	0	0	0	0	525	523	
5	0	0	0	0	518	519	
6	0	0	0	0	511	511	
7	0	0	0	0	497	509	
8	0	0	0	0	490	514	
9	0	0	0	0	494	513	
10	0	0	0	0	500	517	
11	0	0	0	0	514	518	
12	0	0	0	0	545	513	
13	0	0	0	0	536	508	
14	0	0	0	0	499	504	
15	0	0	0	0	476	502	
0	0	0	0	0	469	506	
1	0	0	0	0	502	516	
2	0	0	0	0	523	518	
3	0	0	0	0	546	518	
4	0	0	0	0	570	514	
5	0	0	0	0	576	506	
6	0	0	0	0	500	502	
7	0	0	0	0	440	500	
8	0	0	0	0	430	507	
9	0	0	0	0	460	513	
10	0	0	0	0	502	512	
11	0	0	0	0	527	513	
12	0	0	0	0	509	509	
13	0	0	0	0	499	507	
14	0	0	0	0	497	508	
15	0	0	0	0	538	511	
0	0	0	0	0	516	503	
1	0	0	0	0	487	511	
2	0	0	0	0	486	515	
3	0	0	0	0	496	515	
4	0	0	0	0	508	518	
5	0	0	0	0	513	518	
6	0	0	0	0	506	519	
7	0	0	0	0	507	520	
8	0	0	0	0	510	520	
9	0	0	0	0	509	516	
10	0	0	0	0	504	514	
11	0	0	0	0	512	515	
12	0	0	0	0	551	511	
13	0	0	0	0	546	511	
14	0	0	0	0	535	512	
15	0	0	0	0	515	511	
0	0	0	0	0	503	515	
1	0	0	0	0	492	512	
2	0	0	0	0	437	508	
3	0	0	0	0	447	508	
4	0	0	0	0	480	508	
5	0	0	0	0	495	510	
6	0	0	0	0	505	512	
7	0	0	0	0	511	512	
8	0	0	0	0	512	509	
9	0	0	0	0	515	509	
10	0	0	0	0	509	508	
11	0	0	0	0	506	510	
12	0	0	0	0	492	507	
13	0	0	0	0	487	512	
14	0	0	0	0	504	516	
15	0	0	0	0	502	517	
0	0	0	0	0	504	515	
1	0	0	0	0	538	517	
2	0	0	0	0	553	516	
3	0	0	0	0	550	507	
4	0	0	0	0	540	505	
5	0	0	0	0	520	512	
6	0	0	0	0	515	508	
7	0	0	0	0	518	505	
8	0	0	0	0	478	504	
9	0	0	0	0	443	505	
10	0	0	0	0	458	514	
11	0	0	0	0	477	514	
12	0	0	0	0	502	514	
13	0	0	0	0	518	515	
14	0	0	0	0	523	515	
15	0	0	0	0	521	515	
0	0	0	0	0	527	514	
1	0	0	0	0	497	510	
2	0	0	0	0	470	509	
3	0	0	0	0	495	515	
4	0	0	0	0	501	515	
5	0	0	0	0	509	513	
6	0	0	0	0	513	514	
7	0	0	0	0	508	514	
8	0	0	0	0	502	515	
9	0	0	0	0	509	512	
10	0	0	0	0	511	511	
11	0	0	0	0	509	512	
12	0	0	0	0	505	510	
13	0	0	0	0	503	510	
14	0	0	0	0	504	515	
15	0	0	0	0	502	517	
0	0	0	0	0	504	516	
1	0	0	0	0	505	513	
2	0	0	0	0	499	509	
3	0	0	0	0	519	515	
4	0	0	0	0	548	523	
5	0	0	0	0	556	516	
6	0	0	0	0	551	518	
7	0	0	0	0	491	519	
8	0	0	0	0	470	512	
9	0	0	0	0	483	503	
10	0	0	0	0	475	496	
11	0	0	0	0	443	501	
12	0	0	0	0	509	506	
13	0	0	0	0	579	508	
14	0	0	0	0	518	507	
15	0	0	0	0	455	499	
0	0	0	0	0	468	504	
1	0	0	0	0	477	507	
2	0	0	0	0	497	513	
3	0	0	0	0	508	516	
4	0	0	0	0	508	517	
5	0	0	0	0	507	515	
6	0	0	0	0	510	517	
7	0	0	0	0	505	514	
8	0	0	0	0	513	514	
9	0	0	0	0	529	512	
10	0	0	0	0	529	516	
11	0	0	0	0	524	519	
12	0	0	0	0	513	524	
13	0	0	0	0	501	524	
14	0	0	0	0	492	517	
15	0	0	0	0	465	506	
0	0	0	0	0	459	508	
1	0	0	0	0	503	511	
2	0	0	0	0	554	508	
3	0	0	0	0	548	509	
4	0	0	0	0	539	517	
5	0	0	0	0	527	517	
6	0	0	0	0	502	510	
7	0	0	0	0	507	492	
8	0	0	0	0	530	487	
9	0	0	0	0	508	487	
10	0	0	0	0	471	504	
11	0	0	0	0	467	515	
12	0	0	0	0	476	518	
13	0	0	0	0	489	516	
14	0	0	0	0	499	514	
15	0	0	0	0	502	514	
0	0	0	0	0	507	517	
1	0	0	0	0	507	517	
2	0	0	0	0	508	516	
3	0	0	0	0	504	519	
4	0	0	0	0	500	519	
5	0	0	0	0	499	518	
6	0	0	0	0	502	521	
7	0	0	0	0	508	515	
8	0	0	0	0	517	508	
9	0	0	0	0	527	507	
10	0	0	0	0	553	504	
11	0	0	0	0	524	506	
12	0	0	0	0	488	506	
13	0	0	0	0	486	509	
14	0	0	0	0	497	515	
15	0	0	0	0	506	516	
0	0	0	0	0	514	510	
1	0	0	0	0	513	508	
2	0	0	0	0	509	511	
3	0	0	0	0	505	508	
4	0	0	0	0	505	513	
5	0	0	0	0	502	513	
6	0	0	0	0	476	513	
7	0	0	0	0	478	512	
8	0	0	0	0	503	514	
9	0	0	0	0	513	512	
10	0	0	0	0	512	517	
11	0	0	0	0	507	513	
12	0	0	0	0	505	514	
13	0	0	0	0	504	515	
14	0	0	0	0	505	512	
15	0	0	0	0	504	511	
0	0	0	0	0	503	507	
1	0	0	0	0	508	513	
2	0	0	0	0	507	518	
3	0	0	0	0	511	518	
4	0	0	0	0	515	522	
5	0	0	0	0	513	516	
6	0	0	0	0	519	502	
7	0	0	0	0	519	508	
8	0	0	0	0	513	513	
9	0	0	0	0	496	508	
10	0	0	0	0	509	504	
11	0	0	0	0	504	507	
12	0	0	0	0	487	508	
13	0	0	0	0	498	509	
14	0	0	0	0	500	510	
15	0	0	0	0	487	513	
0	0	0	0	0	485	513	
1	0	0	0	0	492	511	
2	0	0	0	0	499	512	
3	0	0	0	0	513	513	
4	0	0	0	0	519	517	
5	0	0	0	0	515	519	
6	0	0	0	0	519	519	
7	0	0	0	0	483	518	
8	0	0	0	0	484	516	
9	0	0	0	0	501	514	
10	0	0	0	0	516	507	
11	0	0	0	0	580	510	
12	0	0	0	0	584	510	
13	0	0	0	0	534	507	
14	0	0	0	0	502	510	
15	0	0	0	0	477	507	
0	0	0	0	0	494	505	
1	0	0	0	0	483	505	
2	0	0	0	0	466	504	
3	0	0	0	0	464	512	
4	0	0	0	0	488	512	
5	0	0	0	0	513	512	
6	0	0	0	0	494	515	
7	0	0	0	0	473	514	
8	0	0	0	0	482	515	
9	0	0	0	0	493	514	
10	0	0	0	0	489	513	
11	0	0	0	0	508	517	
12	0	0	0	0	511	524	
13	0	0	0	0	525	527	
14	0	0	0	0	552	527	
15	0	0	0	0	551	525	
0	0	0	0	0	542	518	
1	0	0	0	0	521	504	
2	0	0	0	0	537	492	
3	0	0	0	0	516	486	
4	0	0	0	0	473	491	
5	0	0	0	0	457	500	
6	0	0	0	0	491	508	
7	0	0	0	0	504	510	
8	0	0	0	0	486	511	
9	0	0	0	0	481	514	
10	0	0	0	0	489	518	
11	0	0	0	0	500	519	
12	0	0	0	0	511	519	
13	0	0	0	0	513	516	
14	0	0	0	0	509	515	
15	0	0	0	0	513	515	
0	0	0	0	0	529	512	
1	0	0	0	0	521	513	
2	0	0	0	0	513	515	
3	0	0	0	0	518	512	
4	0	0	0	0	500	514	
5	0	0	0	0	481	515	
6	0	0	0	0	492	507	
7	0	0	0	0	505	504	
8	0	0	0	0	507	506	
9	0	0	0	0	505	512	
10	0	0	0	0	507	516	
11	0	0	0	0	510	519	
12	0	0	0	0	511	516	
13	0	0	0	0	509	508	
14	0	0	0	0	507	508	
15	0	0	0	0	507	508	
0	0	0	0	0	504	508	
1	0	0	0	0	505	514	
2	0	0	0	0	508	513	
3	0	0	0	0	505	512	
4	0	0	0	0	505	512	
5	0	0	0	0	505	511	
6	0	0	0	0	508	518	
7	0	0	0	0	504	517	
8	0	0	0	0	508	513	
9	0	0	0	0	509	511	
10	0	0	0	0	507	512	
11	0	0	0	0	505	511	
12	0	0	0	0	504	510	
13	0	0	0	0	503	509	
14	0	0	0	0	504	510	
15	0	0	0	0	503	507	
0	0	0	0	0	505	506	
1	0	0	0	0	505	510	
2	0	0	0	0	504	516	
3	0	0	0	0	504	515	
4	0	0	0	0	505	515	
5	0	0	0	0	505	511	
6	0	0	0	0	505	507	
7	0	0	0	0	505	501	
8	0	0	0	0	505	506	
9	0	0	0	0	507	512	
10	0	0	0	0	505	518	
11	0	0	0	0	508	521	
12	0	0	0	0	504	519	
13	0	0	0	0	505	515	
14	0	0	0	0	504	512	
15	0	0	0	0	504	513	
0	0	0	0	0	505	511	
1	0	0	0	0	505	512	
2	0	0	0	0	505	513	
3	0	0	0	0	504	513	
4	0	0	0	0	503	512	
5	0	0	0	0	505	509	
6	0	0	0	0	505	510	
7	0	0	0	0	506	514	
8	0	0	0	0	506	509	
9	0	0	0	0	507	510	
10	0	0	0	0	506	511	
11	0	0	0	0	503	510	
12	0	0	0	0	507	509	
13	0	0	0	0	504	509	
14	0	0	0	0	506	510	
15	0	0	0	0	505	515	
0	0	0	0	0	507	512	
1	0	0	0	0	505	516	
2	0	0	0	0	500	513	
3	0	0	0	0	501	511	
4	0	0	0	0	502	512	
5	0	0	0	0	503	512	
6	0	0	0	0	506	514	
7	0	0	0	0	509	514	
8	0	0	0	0	510	518	
9	0	0	0	0	509	516	
10	0	0	0	0	511	512	
11	0	0	0	0	519	509	
12	0	0	0	0	518	506	
13	0	0	0	0	516	507	
14	0	0	0	0	499	509	
15	0	0	0	0	489	509	
0	0	0	0	0	480	515	
1	0	0	0	0	492	514	
2	0	0	0	0	510	514	
3	0	0	0	0	522	513	
4	0	0	0	0	532	510	
5	0	0	0	0	528	508	
6	0	0	0	0	505	507	
7	0	0	0	0	503	509	
8	0	0	0	0	496	512	
9	0	0	0	0	495	513	
10	0	0	0	0	493	513	
11	0	0	0	0	486	508	
12	0	0	0	0	488	512	
13	0	0	0	0	503	509	
14	0	0	0	0	508	510	
15	0	0	0	0	508	512	
0	0	0	0	0	507	513	
1	0	0	0	0	506	512	
2	0	0	0	0	508	511	
3	0	0	0	0	508	515	
4	0	0	0	0	504	517	
5	0	0	0	0	505	518	
6	0	0	0	0	505	520	
7	0	0	0	0	506	515	
8	0	0	0	0	505	516	
9	0	0	0	0	507	512	
10	0	0	0	0	507	504	
11	0	0	0	0	508	505	
12	0	0	0	0	506	506	
13	0	0	0	0	508	512	
14	0	0	0	0	506	510	
15	0	0	0	0	507	505	
0	0	0	0	0	504	509	
1	0	0	0	0	505	517	
2	0	0	0	0	505	517	
3	0	0	0	0	505	507	
4	0	0	0	0	504	500	
5	0	0	0	0	505	512	
6	0	0	0	0	506	515	
7	0	0	0	0	506	509	
8	0	0	0	0	505	510	
9	0	0	0	0	507	518	
10	0	0	0	0	504	519	
11	0	0	0	0	504	509	
12	0	0	0	0	505	508	
13	0	0	0	0	505	503	
14	0	0	0	0	504	505	
15	0	0	0	0	505	515	
0	0	0	0	0	507	529	
1	0	0	0	0	507	524	
2	0	0	0	0	508	518	
3	0	0	0	0	504	515	
4	0	0	0	0	505	513	
5	0	0	0	0	505	513	
6	0	0	0	0	506	512	
7	0	0	0	0	505	512	
8	0	0	0	0	506	512	
9	0	0	0	0	504	507	
10	0	0	0	0	505	506	
11	0	0	0	0	506	508	
12	0	0	0	0	505	513	
13	0	0	0	0	502	514	
14	0	0	0	0	506	510	
15	0	0	0	0	506	512	
0	0	0	0	0	504	512	
1	0	0	0	0	505	512	
2	0	0	0	0	505	512	
3	0	0	0	0	505	513	
4	0	0	0	0	506	512	
5	0	0	0	0	503	510	
6	0	0	0	0	503	509	
7	0	0	0	0	505	511	
8	0	0	0	0	505	512	
9	0	0	0	0	507	512	
10	0	0	0	0	504	510	
11	0	0	0	0	505	511	
12	0	0	0	0	507	513	
13	0	0	0	0	505	511	
14	0	0	0	0	503	511	
15	0	0	0	0	506	513	
0	0	0	0	0	507	511	
1	0	0	0	0	505	509	
2	0	0	0	0	505	512	
3	0	0	0	0	504	511	
4	0	0	0	0	507	515	
5	0	0	0	0	507	515	
6	0	0	0	0	506	515	
7	0	0	0	0	507	515	
8	0	0	0	0	505	511	
9	0	0	0	0	507	508	
10	0	0	0	0	508	511	
11	0	0	0	0	507	513	
12	0	0	0	0	507	519	
13	0	0	0	0	507	517	
14	0	0	0	0	506	513	
15	0	0	0	0	505	512	
0	0	0	0	0	502	509	
1	0	0	0	0	505	510	
2	0	0	0	0	500	511	
3	0	0	0	0	503	512	
4	0	0	0	0	507	511	
5	0	0	0	0	515	513	
6	0	0	0	0	515	513	
7	0	0	0	0	510	512	
8	0	0	0	0	499	510	
9	0	0	0	0	502	509	
10	0	0	0	0	511	509	
11	0	0	0	0	509	511	
12	0	0	0	0	505	511	
13	0	0	0	0	502	512	
14	0	0	0	0	504	512	
15	0	0	0	0	503	511	
0	0	0	0	0	504	510	
1	0	0	0	0	504	512	
2	0	0	0	0	505	510	
3	0	0	0	0	505	509	
4	0	0	0	0	504	512	
5	0	0	0	0	504	512	
6	0	0	0	0	504	512	
7	0	0	0	0	508	513	
8	0	0	0	0	505	513	
9	0	0	0	0	505	511	
10	0	0	0	0	505	511	
11	0	0	0	0	505	511	
12	0	0	0	0	505	511	
13	0	0	0	0	504	512	
14	0	0	0	0	504	509	
15	0	0	0	0	504	510	
0	0	0	0	0	504	512	
1	0	0	0	0	504	515	
2	0	0	0	0	505	513	
3	0	0	0	0	506	515	
4	0	0	0	0	507	512	
5	0	0	0	0	507	511	
6	0	0	0	0	508	510	
7	0	0	0	0	505	512	
8	0	0	0	0	506	510	
9	0	0	0	0	506	512	
10	0	0	0	0	507	511	
11	0	0	0	0	506	510	
12	0	0	0	0	506	510	
13	0	0	0	0	506	513	
14	0	0	0	0	507	511	
15	0	0	0	0	506	510	
0	0	0	0	0	505	511	
1	0	0	0	0	506	511	
2	0	0	0	0	504	510	
3	0	0	0	0	504	510	
4	0	0	0	0	504	511	
5	0	0	0	0	506	512	
6	0	0	0	0	506	513	
7	0	0	0	0	504	512	
8	0	0	0	0	504	511	
9	0	0	0	0	506	515	
10	0	0	0	0	506	515	
11	0	0	0	0	504	512	
12	0	0	0	0	505	514	
13	0	0	0	0	504	515	
14	0	0	0	0	505	514	
15	0	0	0	0	505	513	
0	0	0	0	0	505	510	
1	0	0	0	0	504	509	
2	0	0	0	0	504	512	
3	0	0	0	0	506	513	
4	0	0	0	0	504	511	
5	0	0	0	0	506	512	
6	0	0	0	0	504	511	
7	0	0	0	0	505	511	
8	0	0	0	0	507	511	
9	0	0	0	0	505	511	
10	0	0	0	0	505	512	
11	0	0	0	0	505	510	
12	0	0	0	0	504	511	
13	0	0	0	0	506	511	
14	0	0	0	0	507	512	
15	0	0	0	0	508	514	
0	0	0	0	0	507	512	
1	0	0	0	0	504	512	
2	0	0	0	0	504	511	
3	0	0	0	0	505	512	
4	0	0	0	0	503	509	
5	0	0	0	0	503	510	
6	0	0	0	0	506	512	
7	0	0	0	0	505	510	
8	0	0	0	0	504	510	
9	0	0	0	0	505	512	
10	0	0	0	0	503	512	
11	0	0	0	0	505	512	
12	0	0	0	0	505	512	
13	0	0	0	0	505	513	
14	0	0	0	0	508	515	
15	0	0	0	0	510	512	
0	0	0	0	0	509	515	
1	0	0	0	0	506	515	
2	0	0	0	0	507	512	
3	0	0	0	0	504	513	
4	0	0	0	0	506	515	
5	0	0	0	0	505	514	
6	0	0	0	0	504	513	
7	0	0	0	0	505	511	
8	0	0	0	0	505	512	
9	0	0	0	0	504	514	
10	0	0	0	0	507	513	
11	0	0	0	0	502	512	
12	0	0	0	0	505	511	
13	0	0	0	0	507	510	
14	0	0	0	0	506	512	
15	0	0	0	0	504	510	
0	0	0	0	0	504	512	
1	0	0	0	0	506	510	
2	0	0	0	0	507	510	
3	0	0	0	0	506	511	
4	0	0	0	0	506	511	
5	0	0	0	0	504	512	
6	0	0	0	0	503	512	
7	0	0	0	0	503	512	
8	0	0	0	0	507	510	
9	0	0	0	0	506	512	
10	0	0	0	0	506	513	
11	0	0	0	0	507	513	
12	0	0	0	0	508	512	
13	0	0	0	0	508	509	
14	0	0	0	0	508	512	
15	0	0	0	0	508	513	
0	0	0	0	0	504	513	
1	0	0	0	0	502	511	
2	0	0	0	0	502	510	
3	0	0	0	0	502	511	
4	0	0	0	0	504	512	
5	0	0	0	0	505	513	
6	0	0	0	0	504	509	
7	0	0	0	0	503	506	
8	0	0	0	0	502	505	
9	0	0	0	0	507	510	
10	0	0	0	0	505	510	
11	0	0	0	0	506	513	
12	0	0	0	0	506	514	
13	0	0	0	0	505	515	
14	0	0	0	0	510	515	
15	0	0	0	0	508	515	
0	0	0	0	0	507	520	
1	0	0	0	0	506	520	
2	0	0	0	0	505	516	
3	0	0	0	0	508	516	
4	0	0	0	0	507	511	
5	0	0	0	0	509	513	
6	0	0	0	0	506	512	
7	0	0	0	0	505	512	
8	0	0	0	0	503	510	
9	0	0	0	0	506	510	
10	0	0	0	0	506	505	
11	0	0	0	0	508	509	
12	0	0	0	0	505	510	
13	0	0	0	0	507	512	
14	0	0	0	0	507	513	
15	0	0	0	0	508	514	
0	0	0	0	0	507	512	
1	0	0	0	0	506	512	
2	0	0	0	0	504	512	
3	0	0	0	0	504	511	
4	0	0	0	0	501	511	
5	0	0	0	0	502	512	
6	0	0	0	0	499	510	
7	0	0	0	0	492	508	
8	0	0	0	0	496	510	
9	0	0	0	0	504	512	
10	0	0	0	0	509	512	
11	0	0	0	0	506	511	
12	0	0	0	0	507	511	
13	0	0	0	0	508	514	
14	0	0	0	0	509	514	
15	0	0	0	0	509	512	
0	0	0	0	0	511	512	
1	0	0	0	0	506	512	
2	0	0	0	0	504	509	
3	0	0	0	0	508	510	
4	0	0	0	0	512	511	
5	0	0	0	0	510	509	
6	0	0	0	0	508	511	
7	0	0	0	0	508	511	
8	0	0	0	0	509	509	
9	0	0	0	0	511	510	
10	0	0	0	0	508	513	
11	0	0	0	0	500	513	
12	0	0	0	0	499	512	
13	0	0	0	0	500	513	
14	0	0	0	0	503	513	
15	0	0	0	0	502	512	
0	0	0	0	0	505	515	
1	0	0	0	0	507	511	
2	0	0	0	0	507	513	
3	0	0	0	0	505	512	
4	0	0	0	0	505	513	
5	0	0	0	0	500	512	
6	0	0	0	0	500	512	
7	0	0	0	0	504	512	
8	0	0	0	0	507	512	
9	0	0	0	0	508	511	
10	0	0	0	0	510	511	
11	0	0	0	0	509	509	
12	0	0	0	0	506	510	
13	0	0	0	0	507	511	
14	0	0	0	0	507	513	
15	0	0	0	0	506	513	
0	0	0	0	0	503	511	
1	0	0	0	0	504	513	
2	0	0	0	0	510	514	
3	0	0	0	0	509	512	
4	0	0	0	0	506	515	
5	0	0	0	0	502	512	
6	0	0	0	0	499	509	
7	0	0	0	0	505	510	
8	0	0	0	0	507	512	
9	0	0	0	0	508	512	
10	0	0	0	0	508	510	
11	0	0	0	0	507	513	
12	0	0	0	0	503	512	
13	0	0	0	0	502	511	
14	0	0	0	0	507	513	
15	0	0	0	0	510	512	
0	0	0	0	0	509	514	
1	0	0	0	0	498	509	
2	0	0	0	0	498	508	
3	0	0	0	0	497	512	
4	0	0	0	0	501	512	
5	0	0	0	0	504	511	
6	0	0	0	0	504	513	
7	0	0	0	0	504	515	
8	0	0	0	0	506	511	
9	0	0	0	0	511	510	
10	0	0	0	0	508	508	
11	0	0	0	0	509	508	
12	0	0	0	0	510	512	
13	0	0	0	0	505	512	
14	0	0	0	0	506	513	
15	0	0	0	0	505	512	
0	0	0	0	0	506	512	
1	0	0	0	0	508	514	
2	0	0	0	0	504	515	
3	0	0	0	0	505	515	
4	0	0	0	0	507	513	
5	0	0	0	0	509	511	
6	0	0	0	0	508	514	
7	0	0	0	0	510	511	
8	0	0	0	0	510	512	
9	0	0	0	0	507	510	
10	0	0	0	0	507	510	
11	0	0	0	0	507	511	
12	0	0	0	0	504	513	
13	0	0	0	0	496	511	
14	0	0	0	0	494	511	
15	0	0	0	0	496	511	
0	0	0	0	0	502	508	
1	0	0	0	0	506	512	
2	0	0	0	0	507	510	
3	0	0	0	0	512	512	
4	0	0	0	0	513	509	
5	0	0	0	0	515	507	
6	0	0	0	0	508	505	
7	0	0	0	0	499	505	
8	0	0	0	0	501	508	
9	0	0	0	0	503	508	
10	0	0	0	0	502	512	
11	0	0	0	0	505	512	
12	0	0	0	0	507	513	
13	0	0	0	0	507	517	
14	0	0	0	0	505	524	
15	0	0	0	0	506	529	
0	0	0	0	0	504	542	
1	0	0	0	0	506	535	
2	0	0	0	0	504	511	
3	0	0	0	0	503	488	
4	0	0	0	0	503	487	
5	0	0	0	0	505	493	
6	0	0	0	0	508	502	
7	0	0	0	0	506	508	
8	0	0	0	0	505	508	
9	0	0	0	0	508	506	
10	0	0	0	0	508	503	
11	0	0	0	0	509	505	
12	0	0	0	0	510	511	
13	0	0	0	0	505	523	
14	0	0	0	0	504	521	
15	0	0	0	0	502	521	
0	0	0	0	0	501	515	
1	0	0	0	0	504	516	
2	0	0	0	0	506	515	
3	0	0	0	0	506	526	
4	0	0	0	0	506	530	
5	0	0	0	0	504	519	
6	0	0	0	0	505	519	
7	0	0	0	0	505	510	
8	0	0	0	0	508	510	
9	0	0	0	0	508	511	
10	0	0	0	0	506	512	
11	0	0	0	0	504	512	
12	0	0	0	0	503	509	
13	0	0	0	0	505	510	
14	0	0	0	0	507	509	
15	0	0	0	0	506	508	
0	0	0	0	0	505	505	
1	0	0	0	0	505	505	
2	0	0	0	0	508	509	
3	0	0	0	0	509	509	
4	0	0	0	0	508	509	
5	0	0	0	0	503	508	
6	0	0	0	0	500	508	
7	0	0	0	0	503	507	
8	0	0	0	0	503	501	
9	0	0	0	0	500	500	
10	0	0	0	0	505	500	
11	0	0	0	0	508	503	
12	0	0	0	0	508	504	
13	0	0	0	0	505	506	
14	0	0	0	0	506	503	
15	0	0	0	0	508	505	
0	0	0	0	0	505	509	
1	0	0	0	0	505	533	
2	0	0	0	0	506	541	
3	0	0	0	0	506	544	
4	0	0	0	0	505	534	
5	0	0	0	0	505	526	
6	0	0	0	0	505	515	
7	0	0	0	0	505	511	
8	0	0	0	0	508	515	
9	0	0	0	0	505	511	
10	0	0	0	0	505	504	
11	0	0	0	0	505	501	
12	0	0	0	0	504	497	
13	0	0	0	0	506	495	
14	0	0	0	0	504	503	
15	0	0	0	0	503	510	
0	0	0	0	0	506	524	
1	0	0	0	0	504	527	
2	0	0	0	0	504	537	
3	0	0	0	0	506	527	
4	0	0	0	0	507	526	
5	0	0	0	0	505	500	
6	0	0	0	0	504	492	
7	0	0	0	0	505	506	
8	0	0	0	0	504	506	
9	0	0	0	0	509	507	
10	0	0	0	0	505	503	
11	0	0	0	0	506	509	
12	0	0	0	0	505	515	
13	0	0	0	0	506	514	
14	0	0	0	0	504	507	
15	0	0	0	0	505	503	
0	0	0	0	0	505	504	
1	0	0	0	0	505	507	
2	0	0	0	0	503	509	
3	0	0	0	0	505	514	
4	0	0	0	0	507	518	
5	0	0	0	0	506	515	
6	0	0	0	0	506	516	
7	0	0	0	0	506	521	
8	0	0	0	0	507	527	
9	0	0	0	0	506	523	
10	0	0	0	0	507	510	
11	0	0	0	0	506	502	
12	0	0	0	0	505	501	
13	0	0	0	0	505	506	
14	0	0	0	0	504	514	
15	0	0	0	0	504	515	
0	0	0	0	0	505	510	
1	0	0	0	0	504	510	
2	0	0	0	0	505	509	
3	0	0	0	0	506	510	
