# OpenSignals Text File Format. Version 1
# {"98:D3:71:FE:38:C0": {"position": 0, "device": "bitalino_rev", "device name": "98:D3:71:FE:38:C0", "device connection": "BTH98:D3:71:FE:38:C0", "sampling rate": 1000, "resolution": [4, 1, 1, 1, 1, 10, 10], "firmware version": 1282, "comments": "", "keywords": "", "mode": 0, "sync interval": 2, "date": "2026-6-12", "time": "12:36:58.534", "channels": [1, 2], "sensor": ["EMGBITREV", "EMGBITREV"], "label": ["A1", "A2"], "column": ["nSeq", "I1", "I2", "O1", "O2", "A1", "A2"], "special": [{}, {}], "digital IO": [0, 0, 1, 1]}}
# EndOfHeader
0	0	0	0	0	505	512	
1	0	0	0	0	505	511	
2	0	0	0	0	505	512	
3	0	0	0	0	507	513	
4	0	0	0	0	506	513	
5	0	0	0	0	506	511	
6	0	0	0	0	507	513	
7	0	0	0	0	506	513	
8	0	0	0	0	506	512	
9	0	0	0	0	505	510	
10	0	0	0	0	507	510	
11	0	0	0	0	505	510	
12	0	0	0	0	505	509	
13	0	0	0	0	506	516	
14	0	0	0	0	504	513	
15	0	0	0	0	505	512	
0	0	0	0	0	505	508	
1	0	0	0	0	506	510	
2	0	0	0	0	503	510	
3	0	0	0	0	506	513	
4	0	0	0	0	505	513	
5	0	0	0	0	507	510	
6	0	0	0	0	504	515	
7	0	0	0	0	505	511	
8	0	0	0	0	506	513	
9	0	0	0	0	504	511	
10	0	0	0	0	506	512	
11	0	0	0	0	506	511	
12	0	0	0	0	505	512	
13	0	0	0	0	504	514	
14	0	0	0	0	507	512	
15	0	0	0	0	507	512	
0	0	0	0	0	505	513	
1	0	0	0	0	505	511	
2	0	0	0	0	505	511	
3	0	0	0	0	505	512	
4	0	0	0	0	504	514	
5	0	0	0	0	505	513	
6	0	0	0	0	504	512	
7	0	0	0	0	506	512	
8	0	0	0	0	506	514	
9	0	0	0	0	504	511	
10	0	0	0	0	504	512	
11	0	0	0	0	506	511	
12	0	0	0	0	505	511	
13	0	0	0	0	504	510	
14	0	0	0	0	504	511	
15	0	0	0	0	505	512	
0	0	0	0	0	506	513	
1	0	0	0	0	507	513	
2	0	0	0	0	505	513	
3	0	0	0	0	507	511	
4	0	0	0	0	506	512	
5	0	0	0	0	504	511	
6	0	0	0	0	505	511	
7	0	0	0	0	506	512	
8	0	0	0	0	506	512	
9	0	0	0	0	504	511	
10	0	0	0	0	506	513	
11	0	0	0	0	506	512	
12	0	0	0	0	508	511	
13	0	0	0	0	506	511	
14	0	0	0	0	507	511	
15	0	0	0	0	505	512	
0	0	0	0	0	504	511	
1	0	0	0	0	505	511	
2	0	0	0	0	505	511	
3	0	0	0	0	505	515	
4	0	0	0	0	504	511	
5	0	0	0	0	504	512	
6	0	0	0	0	505	510	
7	0	0	0	0	504	512	
8	0	0	0	0	506	512	
9	0	0	0	0	506	511	
10	0	0	0	0	508	512	
11	0	0	0	0	506	513	
12	0	0	0	0	504	512	
13	0	0	0	0	505	514	
14	0	0	0	0	504	512	
15	0	0	0	0	507	512	
0	0	0	0	0	505	513	
1	0	0	0	0	504	511	
2	0	0	0	0	505	512	
3	0	0	0	0	505	512	
4	0	0	0	0	505	513	
5	0	0	0	0	506	513	
6	0	0	0	0	506	511	
7	0	0	0	0	504	514	
8	0	0	0	0	507	511	
9	0	0	0	0	504	512	
10	0	0	0	0	504	511	
11	0	0	0	0	505	512	
12	0	0	0	0	505	511	
13	0	0	0	0	507	513	
14	0	0	0	0	507	511	
15	0	0	0	0	507	512	
0	0	0	0	0	508	511	
1	0	0	0	0	504	512	
2	0	0	0	0	505	511	
3	0	0	0	0	505	513	
4	0	0	0	0	504	512	
5	0	0	0	0	506	513	
6	0	0	0	0	504	510	
7	0	0	0	0	505	512	
8	0	0	0	0	507	511	
9	0	0	0	0	504	513	
10	0	0	0	0	505	512	
11	0	0	0	0	507	512	
12	0	0	0	0	504	510	
13	0	0	0	0	506	511	
14	0	0	0	0	505	512	
15	0	0	0	0	505	511	
0	0	0	0	0	505	511	
1	0	0	0	0	504	513	
2	0	0	0	0	507	510	
3	0	0	0	0	507	511	
4	0	0	0	0	508	511	
5	0	0	0	0	506	510	
6	0	0	0	0	505	513	
7	0	0	0	0	505	511	
8	0	0	0	0	505	511	
9	0	0	0	0	506	512	
10	0	0	0	0	507	512	
11	0	0	0	0	505	511	
12	0	0	0	0	505	512	
13	0	0	0	0	505	511	
14	0	0	0	0	507	511	
15	0	0	0	0	504	512	
0	0	0	0	0	505	512	
1	0	0	0	0	504	511	
2	0	0	0	0	505	513	
3	0	0	0	0	504	511	
4	0	0	0	0	504	511	
5	0	0	0	0	504	511	
6	0	0	0	0	504	513	
7	0	0	0	0	504	511	
8	0	0	0	0	505	513	
9	0	0	0	0	508	511	
10	0	0	0	0	505	512	
11	0	0	0	0	507	513	
12	0	0	0	0	505	510	
13	0	0	0	0	505	511	
14	0	0	0	0	506	511	
15	0	0	0	0	508	512	
0	0	0	0	0	505	512	
1	0	0	0	0	505	512	
2	0	0	0	0	505	512	
3	0	0	0	0	503	513	
4	0	0	0	0	505	512	
5	0	0	0	0	507	513	
6	0	0	0	0	504	510	
7	0	0	0	0	505	512	
8	0	0	0	0	504	511	
9	0	0	0	0	504	511	
10	0	0	0	0	505	512	
11	0	0	0	0	505	511	
12	0	0	0	0	505	511	
13	0	0	0	0	505	511	
14	0	0	0	0	505	510	
15	0	0	0	0	503	512	
0	0	0	0	0	504	511	
1	0	0	0	0	505	511	
2	0	0	0	0	504	513	
3	0	0	0	0	506	512	
4	0	0	0	0	505	512	
5	0	0	0	0	507	511	
6	0	0	0	0	507	512	
7	0	0	0	0	506	511	
8	0	0	0	0	504	512	
9	0	0	0	0	504	513	
10	0	0	0	0	505	512	
11	0	0	0	0	505	510	
12	0	0	0	0	505	513	
13	0	0	0	0	506	511	
14	0	0	0	0	504	513	
15	0	0	0	0	504	511	
0	0	0	0	0	504	512	
1	0	0	0	0	507	513	
2	0	0	0	0	507	510	
3	0	0	0	0	505	511	
4	0	0	0	0	505	511	
5	0	0	0	0	506	511	
6	0	0	0	0	506	515	
7	0	0	0	0	507	512	
8	0	0	0	0	505	514	
9	0	0	0	0	504	514	
10	0	0	0	0	505	512	
11	0	0	0	0	505	512	
12	0	0	0	0	505	511	
13	0	0	0	0	505	511	
14	0	0	0	0	505	511	
15	0	0	0	0	504	509	
0	0	0	0	0	504	512	
1	0	0	0	0	506	513	
2	0	0	0	0	507	512	
3	0	0	0	0	506	512	
4	0	0	0	0	505	511	
5	0	0	0	0	506	512	
6	0	0	0	0	507	511	
7	0	0	0	0	506	511	
8	0	0	0	0	508	513	
9	0	0	0	0	505	513	
10	0	0	0	0	505	512	
11	0	0	0	0	507	511	
12	0	0	0	0	506	512	
13	0	0	0	0	506	511	
14	0	0	0	0	504	512	
15	0	0	0	0	506	509	
0	0	0	0	0	505	510	
1	0	0	0	0	504	513	
2	0	0	0	0	506	511	
3	0	0	0	0	504	510	
4	0	0	0	0	505	513	
5	0	0	0	0	504	510	
6	0	0	0	0	505	512	
7	0	0	0	0	505	512	
8	0	0	0	0	504	511	
9	0	0	0	0	506	512	
10	0	0	0	0	505	512	
11	0	0	0	0	505	513	
12	0	0	0	0	507	512	
13	0	0	0	0	505	512	
14	0	0	0	0	506	511	
15	0	0	0	0	505	511	
0	0	0	0	0	504	512	
1	0	0	0	0	503	512	
2	0	0	0	0	505	513	
3	0	0	0	0	508	513	
4	0	0	0	0	507	512	
5	0	0	0	0	506	512	
6	0	0	0	0	504	511	
7	0	0	0	0	505	512	
8	0	0	0	0	504	514	
9	0	0	0	0	506	512	
10	0	0	0	0	504	511	
11	0	0	0	0	506	513	
12	0	0	0	0	505	510	
13	0	0	0	0	506	512	
14	0	0	0	0	504	513	
15	0	0	0	0	507	510	
0	0	0	0	0	506	512	
1	0	0	0	0	505	512	
2	0	0	0	0	507	513	
3	0	0	0	0	505	513	
4	0	0	0	0	504	510	
5	0	0	0	0	505	513	
6	0	0	0	0	504	511	
7	0	0	0	0	507	512	
8	0	0	0	0	505	512	
9	0	0	0	0	506	511	
10	0	0	0	0	505	512	
11	0	0	0	0	505	511	
12	0	0	0	0	504	510	
13	0	0	0	0	505	511	
14	0	0	0	0	507	512	
15	0	0	0	0	506	511	
0	0	0	0	0	505	513	
1	0	0	0	0	504	511	
2	0	0	0	0	505	511	
3	0	0	0	0	506	512	
4	0	0	0	0	506	513	
5	0	0	0	0	505	512	
6	0	0	0	0	505	509	
7	0	0	0	0	507	512	
8	0	0	0	0	504	513	
9	0	0	0	0	504	511	
10	0	0	0	0	506	511	
11	0	0	0	0	505	513	
12	0	0	0	0	504	512	
13	0	0	0	0	505	512	
14	0	0	0	0	505	512	
15	0	0	0	0	504	513	
0	0	0	0	0	505	512	
1	0	0	0	0	507	510	
2	0	0	0	0	506	512	
3	0	0	0	0	506	512	
4	0	0	0	0	507	511	
5	0	0	0	0	506	511	
6	0	0	0	0	506	513	
7	0	0	0	0	505	511	
8	0	0	0	0	505	513	
9	0	0	0	0	507	513	
10	0	0	0	0	506	513	
11	0	0	0	0	506	511	
12	0	0	0	0	505	513	
13	0	0	0	0	505	512	
14	0	0	0	0	505	512	
15	0	0	0	0	504	512	
0	0	0	0	0	505	511	
1	0	0	0	0	503	513	
2	0	0	0	0	505	511	
3	0	0	0	0	504	512	
4	0	0	0	0	503	513	
5	0	0	0	0	504	513	
6	0	0	0	0	508	512	
7	0	0	0	0	507	511	
8	0	0	0	0	505	510	
9	0	0	0	0	507	510	
10	0	0	0	0	506	513	
11	0	0	0	0	505	510	
12	0	0	0	0	504	512	
13	0	0	0	0	507	513	
14	0	0	0	0	507	512	
15	0	0	0	0	505	510	
0	0	0	0	0	504	512	
1	0	0	0	0	504	512	
2	0	0	0	0	506	513	
3	0	0	0	0	506	511	
4	0	0	0	0	507	514	
5	0	0	0	0	504	513	
6	0	0	0	0	505	511	
7	0	0	0	0	505	512	
8	0	0	0	0	506	512	
9	0	0	0	0	505	513	
10	0	0	0	0	505	512	
11	0	0	0	0	508	511	
12	0	0	0	0	504	513	
13	0	0	0	0	507	513	
14	0	0	0	0	505	512	
15	0	0	0	0	506	512	
0	0	0	0	0	506	512	
1	0	0	0	0	504	512	
2	0	0	0	0	504	511	
3	0	0	0	0	506	511	
4	0	0	0	0	507	510	
5	0	0	0	0	505	511	
6	0	0	0	0	504	511	
7	0	0	0	0	504	511	
8	0	0	0	0	505	510	
9	0	0	0	0	506	512	
10	0	0	0	0	507	511	
11	0	0	0	0	505	510	
12	0	0	0	0	508	512	
13	0	0	0	0	505	514	
14	0	0	0	0	506	513	
15	0	0	0	0	508	511	
0	0	0	0	0	504	512	
1	0	0	0	0	504	512	
2	0	0	0	0	504	512	
3	0	0	0	0	505	512	
4	0	0	0	0	505	510	
5	0	0	0	0	505	512	
6	0	0	0	0	507	512	
7	0	0	0	0	506	509	
8	0	0	0	0	505	512	
9	0	0	0	0	505	511	
10	0	0	0	0	504	514	
11	0	0	0	0	505	511	
12	0	0	0	0	504	511	
13	0	0	0	0	506	512	
14	0	0	0	0	506	513	
15	0	0	0	0	505	512	
0	0	0	0	0	508	513	
1	0	0	0	0	508	511	
2	0	0	0	0	505	509	
3	0	0	0	0	505	513	
4	0	0	0	0	507	512	
5	0	0	0	0	507	512	
6	0	0	0	0	506	512	
7	0	0	0	0	504	512	
8	0	0	0	0	505	513	
9	0	0	0	0	505	512	
10	0	0	0	0	506	512	
11	0	0	0	0	505	512	
12	0	0	0	0	503	512	
13	0	0	0	0	504	512	
14	0	0	0	0	504	510	
15	0	0	0	0	506	512	
0	0	0	0	0	506	511	
1	0	0	0	0	507	512	
2	0	0	0	0	505	514	
3	0	0	0	0	505	511	
4	0	0	0	0	505	512	
5	0	0	0	0	505	513	
6	0	0	0	0	507	513	
7	0	0	0	0	506	510	
8	0	0	0	0	505	512	
9	0	0	0	0	505	515	
10	0	0	0	0	506	513	
11	0	0	0	0	504	510	
12	0	0	0	0	505	513	
13	0	0	0	0	505	512	
14	0	0	0	0	505	511	
15	0	0	0	0	506	511	
0	0	0	0	0	504	512	
1	0	0	0	0	504	512	
2	0	0	0	0	506	513	
3	0	0	0	0	505	509	
4	0	0	0	0	507	511	
5	0	0	0	0	505	512	
6	0	0	0	0	505	511	
7	0	0	0	0	507	512	
8	0	0	0	0	505	511	
9	0	0	0	0	505	510	
10	0	0	0	0	503	512	
11	0	0	0	0	506	511	
12	0	0	0	0	506	512	
13	0	0	0	0	504	514	
14	0	0	0	0	505	515	
15	0	0	0	0	505	512	
0	0	0	0	0	506	511	
1	0	0	0	0	504	511	
2	0	0	0	0	506	512	
3	0	0	0	0	506	511	
4	0	0	0	0	505	510	
5	0	0	0	0	507	513	
6	0	0	0	0	505	511	
7	0	0	0	0	506	512	
8	0	0	0	0	505	512	
9	0	0	0	0	506	512	
10	0	0	0	0	507	512	
11	0	0	0	0	505	512	
12	0	0	0	0	507	512	
13	0	0	0	0	504	513	
14	0	0	0	0	505	511	
15	0	0	0	0	506	511	
0	0	0	0	0	507	511	
1	0	0	0	0	505	513	
2	0	0	0	0	506	513	
3	0	0	0	0	504	514	
4	0	0	0	0	505	510	
5	0	0	0	0	507	512	
6	0	0	0	0	508	513	
7	0	0	0	0	507	513	
8	0	0	0	0	505	512	
9	0	0	0	0	504	514	
10	0	0	0	0	504	513	
11	0	0	0	0	504	512	
12	0	0	0	0	504	511	
13	0	0	0	0	505	511	
14	0	0	0	0	505	512	
15	0	0	0	0	505	512	
0	0	0	0	0	506	512	
1	0	0	0	0	506	512	
2	0	0	0	0	505	512	
3	0	0	0	0	504	511	
4	0	0	0	0	505	512	
5	0	0	0	0	505	512	
6	0	0	0	0	504	511	
7	0	0	0	0	504	511	
8	0	0	0	0	504	512	
9	0	0	0	0	507	512	
10	0	0	0	0	508	512	
11	0	0	0	0	507	512	
12	0	0	0	0	507	511	
13	0	0	0	0	504	512	
14	0	0	0	0	506	513	
15	0	0	0	0	508	514	
0	0	0	0	0	507	513	
1	0	0	0	0	508	511	
2	0	0	0	0	506	510	
3	0	0	0	0	504	511	
4	0	0	0	0	505	511	
5	0	0	0	0	508	512	
6	0	0	0	0	507	511	
7	0	0	0	0	505	511	
8	0	0	0	0	502	512	
9	0	0	0	0	505	512	
10	0	0	0	0	505	513	
11	0	0	0	0	506	508	
12	0	0	0	0	505	511	
13	0	0	0	0	506	512	
14	0	0	0	0	505	513	
15	0	0	0	0	508	513	
0	0	0	0	0	505	512	
1	0	0	0	0	505	512	
2	0	0	0	0	504	514	
3	0	0	0	0	505	510	
4	0	0	0	0	506	511	
5	0	0	0	0	504	512	
6	0	0	0	0	505	509	
7	0	0	0	0	506	510	
8	0	0	0	0	507	510	
9	0	0	0	0	506	511	
10	0	0	0	0	506	511	
11	0	0	0	0	505	513	
12	0	0	0	0	507	511	
13	0	0	0	0	504	513	
14	0	0	0	0	505	514	
15	0	0	0	0	504	511	
0	0	0	0	0	503	513	
1	0	0	0	0	505	511	
2	0	0	0	0	507	510	
3	0	0	0	0	505	510	
4	0	0	0	0	507	510	
5	0	0	0	0	504	511	
6	0	0	0	0	506	513	
7	0	0	0	0	505	514	
8	0	0	0	0	505	513	
9	0	0	0	0	507	513	
10	0	0	0	0	505	513	
11	0	0	0	0	505	512	
12	0	0	0	0	505	513	
13	0	0	0	0	506	512	
14	0	0	0	0	505	511	
15	0	0	0	0	507	512	
0	0	0	0	0	510	511	
1	0	0	0	0	505	511	
2	0	0	0	0	505	512	
3	0	0	0	0	507	514	
4	0	0	0	0	505	511	
5	0	0	0	0	505	512	
6	0	0	0	0	505	513	
7	0	0	0	0	504	511	
8	0	0	0	0	504	512	
9	0	0	0	0	505	512	
10	0	0	0	0	506	510	
11	0	0	0	0	505	511	
12	0	0	0	0	505	513	
13	0	0	0	0	505	512	
14	0	0	0	0	504	511	
15	0	0	0	0	504	513	
0	0	0	0	0	505	512	
1	0	0	0	0	507	511	
2	0	0	0	0	505	511	
3	0	0	0	0	505	512	
4	0	0	0	0	507	514	
5	0	0	0	0	507	511	
6	0	0	0	0	505	512	
7	0	0	0	0	506	512	
8	0	0	0	0	505	511	
9	0	0	0	0	506	512	
10	0	0	0	0	508	512	
11	0	0	0	0	505	512	
12	0	0	0	0	505	512	
13	0	0	0	0	507	512	
14	0	0	0	0	506	511	
15	0	0	0	0	505	511	
0	0	0	0	0	505	512	
1	0	0	0	0	505	512	
2	0	0	0	0	503	512	
3	0	0	0	0	504	512	
4	0	0	0	0	506	513	
5	0	0	0	0	504	510	
6	0	0	0	0	503	512	
7	0	0	0	0	504	512	
8	0	0	0	0	506	510	
9	0	0	0	0	507	512	
10	0	0	0	0	507	511	
11	0	0	0	0	505	513	
12	0	0	0	0	507	511	
13	0	0	0	0	505	514	
14	0	0	0	0	506	511	
15	0	0	0	0	505	512	
0	0	0	0	0	504	513	
1	0	0	0	0	507	510	
2	0	0	0	0	506	509	
3	0	0	0	0	504	512	
4	0	0	0	0	504	513	
5	0	0	0	0	504	513	
6	0	0	0	0	505	512	
7	0	0	0	0	507	511	
8	0	0	0	0	507	510	
9	0	0	0	0	505	511	
10	0	0	0	0	508	513	
11	0	0	0	0	504	512	
12	0	0	0	0	504	513	
13	0	0	0	0	505	512	
14	0	0	0	0	505	512	
15	0	0	0	0	508	515	
0	0	0	0	0	506	512	
1	0	0	0	0	506	513	
2	0	0	0	0	504	512	
3	0	0	0	0	503	512	
4	0	0	0	0	505	512	
5	0	0	0	0	504	511	
6	0	0	0	0	506	511	
7	0	0	0	0	503	511	
8	0	0	0	0	505	512	
9	0	0	0	0	508	511	
10	0	0	0	0	507	510	
11	0	0	0	0	507	510	
12	0	0	0	0	507	512	
13	0	0	0	0	506	513	
14	0	0	0	0	507	512	
15	0	0	0	0	504	512	
0	0	0	0	0	504	512	
1	0	0	0	0	505	511	
2	0	0	0	0	504	512	
3	0	0	0	0	504	512	
4	0	0	0	0	505	512	
5	0	0	0	0	506	511	
6	0	0	0	0	506	511	
7	0	0	0	0	505	510	
8	0	0	0	0	507	512	
9	0	0	0	0	505	512	
10	0	0	0	0	505	512	
11	0	0	0	0	506	512	
12	0	0	0	0	506	512	
13	0	0	0	0	506	512	
14	0	0	0	0	504	513	
15	0	0	0	0	504	512	
0	0	0	0	0	505	510	
1	0	0	0	0	504	512	
2	0	0	0	0	505	512	
3	0	0	0	0	508	512	
4	0	0	0	0	505	511	
5	0	0	0	0	504	512	
6	0	0	0	0	505	511	
7	0	0	0	0	507	511	
8	0	0	0	0	507	512	
9	0	0	0	0	504	513	
10	0	0	0	0	504	512	
11	0	0	0	0	505	512	
12	0	0	0	0	506	513	
13	0	0	0	0	504	511	
14	0	0	0	0	505	511	
15	0	0	0	0	507	513	
0	0	0	0	0	504	512	
1	0	0	0	0	505	512	
2	0	0	0	0	506	510	
3	0	0	0	0	506	510	
4	0	0	0	0	504	512	
5	0	0	0	0	504	511	
6	0	0	0	0	506	510	
7	0	0	0	0	505	511	
8	0	0	0	0	505	512	
9	0	0	0	0	507	512	
10	0	0	0	0	505	514	
11	0	0	0	0	504	512	
12	0	0	0	0	505	511	
13	0	0	0	0	504	511	
14	0	0	0	0	504	512	
15	0	0	0	0	505	513	
0	0	0	0	0	505	511	
1	0	0	0	0	506	510	
2	0	0	0	0	504	511	
3	0	0	0	0	504	511	
4	0	0	0	0	505	512	
5	0	0	0	0	505	512	
6	0	0	0	0	505	512	
7	0	0	0	0	506	512	
8	0	0	0	0	508	512	
9	0	0	0	0	506	513	
10	0	0	0	0	507	513	
11	0	0	0	0	505	514	
12	0	0	0	0	507	511	
13	0	0	0	0	508	511	
14	0	0	0	0	507	511	
15	0	0	0	0	505	513	
0	0	0	0	0	504	512	
1	0	0	0	0	506	511	
2	0	0	0	0	505	512	
3	0	0	0	0	504	511	
4	0	0	0	0	505	512	
5	0	0	0	0	505	511	
6	0	0	0	0	506	512	
7	0	0	0	0	505	512	
8	0	0	0	0	507	511	
9	0	0	0	0	504	514	
10	0	0	0	0	505	512	
11	0	0	0	0	505	512	
12	0	0	0	0	506	512	
13	0	0	0	0	506	512	
14	0	0	0	0	505	511	
15	0	0	0	0	505	511	
0	0	0	0	0	504	510	
1	0	0	0	0	504	512	
2	0	0	0	0	507	513	
3	0	0	0	0	504	513	
4	0	0	0	0	505	511	
5	0	0	0	0	507	513	
6	0	0	0	0	506	511	
7	0	0	0	0	507	511	
8	0	0	0	0	505	512	
9	0	0	0	0	507	510	
10	0	0	0	0	508	513	
11	0	0	0	0	505	513	
12	0	0	0	0	507	511	
13	0	0	0	0	506	512	
14	0	0	0	0	506	512	
15	0	0	0	0	503	512	
0	0	0	0	0	506	511	
1	0	0	0	0	503	511	
2	0	0	0	0	506	514	
3	0	0	0	0	504	511	
4	0	0	0	0	505	512	
5	0	0	0	0	505	512	
6	0	0	0	0	507	512	
7	0	0	0	0	507	512	
8	0	0	0	0	506	511	
9	0	0	0	0	505	511	
10	0	0	0	0	506	514	
11	0	0	0	0	505	512	
12	0	0	0	0	505	511	
13	0	0	0	0	503	512	
14	0	0	0	0	506	512	
15	0	0	0	0	505	513	
0	0	0	0	0	505	514	
1	0	0	0	0	505	511	
2	0	0	0	0	504	512	
3	0	0	0	0	507	512	
4	0	0	0	0	506	511	
5	0	0	0	0	503	511	
6	0	0	0	0	507	512	
7	0	0	0	0	507	511	
8	0	0	0	0	506	513	
9	0	0	0	0	507	512	
10	0	0	0	0	505	512	
11	0	0	0	0	504	512	
12	0	0	0	0	504	512	
13	0	0	0	0	504	511	
14	0	0	0	0	506	512	
15	0	0	0	0	506	511	
0	0	0	0	0	509	513	
1	0	0	0	0	508	514	
2	0	0	0	0	505	511	
3	0	0	0	0	504	511	
4	0	0	0	0	506	510	
5	0	0	0	0	506	512	
6	0	0	0	0	504	512	
7	0	0	0	0	504	512	
8	0	0	0	0	505	512	
9	0	0	0	0	504	512	
10	0	0	0	0	506	512	
11	0	0	0	0	506	512	
12	0	0	0	0	507	512	
13	0	0	0	0	506	512	
14	0	0	0	0	505	512	
15	0	0	0	0	504	513	
0	0	0	0	0	505	511	
1	0	0	0	0	505	514	
2	0	0	0	0	504	511	
3	0	0	0	0	504	512	
4	0	0	0	0	504	514	
5	0	0	0	0	505	512	
6	0	0	0	0	507	512	
7	0	0	0	0	504	513	
8	0	0	0	0	504	510	
9	0	0	0	0	506	509	
10	0	0	0	0	506	512	
11	0	0	0	0	505	510	
12	0	0	0	0	504	511	
13	0	0	0	0	504	510	
14	0	0	0	0	507	512	
15	0	0	0	0	506	509	
0	0	0	0	0	504	514	
1	0	0	0	0	505	513	
2	0	0	0	0	507	513	
3	0	0	0	0	508	512	
4	0	0	0	0	505	512	
5	0	0	0	0	508	513	
6	0	0	0	0	507	511	
7	0	0	0	0	505	510	
8	0	0	0	0	507	512	
9	0	0	0	0	505	511	
10	0	0	0	0	506	510	
11	0	0	0	0	505	513	
12	0	0	0	0	506	513	
13	0	0	0	0	507	513	
14	0	0	0	0	507	511	
15	0	0	0	0	506	512	
0	0	0	0	0	504	511	
1	0	0	0	0	505	513	
2	0	0	0	0	504	512	
3	0	0	0	0	504	514	
4	0	0	0	0	506	512	
5	0	0	0	0	504	512	
6	0	0	0	0	505	512	
7	0	0	0	0	507	511	
8	0	0	0	0	506	513	
9	0	0	0	0	508	511	
10	0	0	0	0	505	510	
11	0	0	0	0	507	512	
12	0	0	0	0	505	511	
13	0	0	0	0	505	510	
14	0	0	0	0	504	512	
15	0	0	0	0	507	511	
0	0	0	0	0	507	512	
1	0	0	0	0	504	512	
2	0	0	0	0	506	512	
3	0	0	0	0	507	512	
4	0	0	0	0	504	511	
5	0	0	0	0	503	512	
6	0	0	0	0	506	512	
7	0	0	0	0	504	514	
8	0	0	0	0	504	511	
9	0	0	0	0	508	512	
10	0	0	0	0	506	510	
11	0	0	0	0	505	510	
12	0	0	0	0	506	512	
13	0	0	0	0	507	511	
14	0	0	0	0	505	512	
15	0	0	0	0	506	511	
0	0	0	0	0	505	512	
1	0	0	0	0	506	512	
2	0	0	0	0	506	513	
3	0	0	0	0	504	512	
4	0	0	0	0	505	511	
5	0	0	0	0	507	512	
6	0	0	0	0	504	512	
7	0	0	0	0	504	512	
8	0	0	0	0	504	512	
9	0	0	0	0	504	511	
10	0	0	0	0	506	511	
11	0	0	0	0	504	511	
12	0	0	0	0	506	512	
13	0	0	0	0	504	512	
14	0	0	0	0	505	513	
15	0	0	0	0	505	512	
0	0	0	0	0	505	511	
1	0	0	0	0	507	511	
2	0	0	0	0	505	511	
3	0	0	0	0	505	512	
4	0	0	0	0	507	513	
5	0	0	0	0	505	512	
6	0	0	0	0	508	511	
7	0	0	0	0	505	512	
8	0	0	0	0	505	510	
9	0	0	0	0	507	511	
10	0	0	0	0	505	512	
11	0	0	0	0	505	512	
12	0	0	0	0	504	513	
13	0	0	0	0	507	512	
14	0	0	0	0	503	509	
15	0	0	0	0	504	512	
0	0	0	0	0	506	512	
1	0	0	0	0	504	512	
2	0	0	0	0	507	511	
3	0	0	0	0	505	512	
4	0	0	0	0	504	510	
5	0	0	0	0	505	513	
6	0	0	0	0	506	511	
7	0	0	0	0	507	513	
8	0	0	0	0	507	512	
9	0	0	0	0	505	511	
10	0	0	0	0	505	512	
11	0	0	0	0	505	511	
12	0	0	0	0	506	510	
13	0	0	0	0	504	512	
14	0	0	0	0	505	513	
15	0	0	0	0	504	513	
0	0	0	0	0	506	510	
1	0	0	0	0	505	513	
2	0	0	0	0	507	512	
3	0	0	0	0	506	511	
4	0	0	0	0	508	510	
5	0	0	0	0	504	512	
6	0	0	0	0	505	512	
7	0	0	0	0	504	512	
8	0	0	0	0	503	512	
9	0	0	0	0	506	512	
10	0	0	0	0	506	513	
11	0	0	0	0	506	513	
12	0	0	0	0	505	510	
13	0	0	0	0	507	512	
14	0	0	0	0	505	510	
15	0	0	0	0	505	512	
0	0	0	0	0	506	510	
1	0	0	0	0	505	510	
2	0	0	0	0	505	511	
3	0	0	0	0	505	512	
4	0	0	0	0	504	513	
5	0	0	0	0	504	512	
6	0	0	0	0	506	512	
7	0	0	0	0	506	514	
8	0	0	0	0	505	510	
9	0	0	0	0	505	510	
10	0	0	0	0	505	510	
11	0	0	0	0	505	510	
12	0	0	0	0	507	513	
13	0	0	0	0	505	512	
14	0	0	0	0	506	510	
15	0	0	0	0	504	512	
0	0	0	0	0	506	512	
1	0	0	0	0	506	514	
2	0	0	0	0	505	514	
3	0	0	0	0	506	511	
4	0	0	0	0	508	512	
5	0	0	0	0	505	513	
6	0	0	0	0	505	512	
7	0	0	0	0	504	513	
8	0	0	0	0	506	510	
9	0	0	0	0	506	512	
10	0	0	0	0	506	510	
11	0	0	0	0	504	511	
12	0	0	0	0	504	511	
13	0	0	0	0	505	511	
14	0	0	0	0	506	511	
15	0	0	0	0	508	511	
0	0	0	0	0	506	512	
1	0	0	0	0	505	510	
2	0	0	0	0	507	510	
3	0	0	0	0	505	512	
4	0	0	0	0	505	511	
5	0	0	0	0	504	514	
6	0	0	0	0	506	511	
7	0	0	0	0	504	513	
8	0	0	0	0	505	511	
9	0	0	0	0	505	514	
10	0	0	0	0	507	512	
11	0	0	0	0	506	511	
12	0	0	0	0	505	514	
13	0	0	0	0	507	512	
14	0	0	0	0	505	511	
15	0	0	0	0	505	510	
0	0	0	0	0	504	512	
1	0	0	0	0	505	512	
2	0	0	0	0	505	512	
3	0	0	0	0	506	511	
4	0	0	0	0	505	511	
5	0	0	0	0	505	512	
6	0	0	0	0	505	514	
7	0	0	0	0	503	512	
8	0	0	0	0	506	512	
9	0	0	0	0	504	512	
10	0	0	0	0	507	513	
11	0	0	0	0	507	511	
12	0	0	0	0	504	512	
13	0	0	0	0	505	512	
14	0	0	0	0	504	511	
15	0	0	0	0	504	512	
0	0	0	0	0	505	512	
1	0	0	0	0	505	511	
2	0	0	0	0	504	513	
3	0	0	0	0	504	513	
4	0	0	0	0	505	510	
5	0	0	0	0	504	511	
6	0	0	0	0	508	512	
7	0	0	0	0	506	512	
8	0	0	0	0	505	511	
9	0	0	0	0	507	511	
10	0	0	0	0	505	512	
11	0	0	0	0	506	512	
12	0	0	0	0	505	511	
13	0	0	0	0	506	511	
14	0	0	0	0	504	513	
15	0	0	0	0	505	513	
0	0	0	0	0	507	511	
1	0	0	0	0	505	511	
2	0	0	0	0	505	512	
3	0	0	0	0	504	511	
4	0	0	0	0	504	513	
5	0	0	0	0	505	513	
6	0	0	0	0	504	512	
7	0	0	0	0	504	511	
8	0	0	0	0	504	511	
9	0	0	0	0	507	512	
10	0	0	0	0	508	511	
11	0	0	0	0	507	512	
12	0	0	0	0	505	511	
13	0	0	0	0	507	511	
14	0	0	0	0	505	511	
15	0	0	0	0	504	511	
0	0	0	0	0	505	513	
1	0	0	0	0	505	510	
2	0	0	0	0	504	511	
3	0	0	0	0	505	510	
4	0	0	0	0	507	508	
5	0	0	0	0	506	513	
6	0	0	0	0	504	510	
7	0	0	0	0	504	512	
8	0	0	0	0	503	515	
9	0	0	0	0	504	515	
10	0	0	0	0	503	514	
11	0	0	0	0	505	511	
12	0	0	0	0	506	510	
13	0	0	0	0	505	510	
14	0	0	0	0	504	513	
15	0	0	0	0	505	511	
0	0	0	0	0	504	513	
1	0	0	0	0	505	513	
2	0	0	0	0	506	512	
3	0	0	0	0	506	510	
4	0	0	0	0	507	511	
5	0	0	0	0	505	512	
6	0	0	0	0	505	512	
7	0	0	0	0	505	511	
8	0	0	0	0	506	512	
9	0	0	0	0	504	510	
10	0	0	0	0	505	512	
11	0	0	0	0	505	511	
12	0	0	0	0	507	514	
13	0	0	0	0	507	513	
14	0	0	0	0	506	511	
15	0	0	0	0	505	511	
0	0	0	0	0	504	512	
1	0	0	0	0	504	513	
2	0	0	0	0	506	512	
3	0	0	0	0	505	511	
4	0	0	0	0	507	512	
5	0	0	0	0	505	512	
6	0	0	0	0	504	512	
7	0	0	0	0	503	511	
8	0	0	0	0	507	511	
9	0	0	0	0	505	511	
10	0	0	0	0	505	511	
11	0	0	0	0	505	511	
12	0	0	0	0	505	512	
13	0	0	0	0	504	511	
14	0	0	0	0	506	514	
15	0	0	0	0	508	511	
0	0	0	0	0	505	511	
1	0	0	0	0	505	509	
2	0	0	0	0	507	513	
3	0	0	0	0	504	511	
4	0	0	0	0	506	513	
5	0	0	0	0	505	511	
6	0	0	0	0	504	513	
7	0	0	0	0	504	512	
8	0	0	0	0	507	511	
9	0	0	0	0	505	513	
10	0	0	0	0	505	512	
11	0	0	0	0	504	512	
12	0	0	0	0	505	511	
13	0	0	0	0	506	513	
14	0	0	0	0	506	512	
15	0	0	0	0	505	511	
0	0	0	0	0	505	511	
1	0	0	0	0	503	511	
2	0	0	0	0	505	513	
3	0	0	0	0	507	511	
4	0	0	0	0	505	512	
5	0	0	0	0	505	510	
6	0	0	0	0	506	512	
7	0	0	0	0	505	511	
8	0	0	0	0	506	512	
9	0	0	0	0	507	512	
10	0	0	0	0	506	512	
11	0	0	0	0	504	512	
12	0	0	0	0	505	509	
13	0	0	0	0	504	511	
14	0	0	0	0	505	512	
15	0	0	0	0	506	514	
0	0	0	0	0	506	512	
1	0	0	0	0	504	511	
2	0	0	0	0	505	512	
3	0	0	0	0	505	512	
4	0	0	0	0	505	511	
5	0	0	0	0	505	512	
6	0	0	0	0	505	513	
7	0	0	0	0	505	511	
8	0	0	0	0	505	513	
9	0	0	0	0	506	511	
10	0	0	0	0	504	512	
11	0	0	0	0	504	511	
12	0	0	0	0	505	512	
13	0	0	0	0	505	511	
14	0	0	0	0	506	512	
15	0	0	0	0	506	511	
0	0	0	0	0	505	512	
1	0	0	0	0	506	511	
2	0	0	0	0	505	510	
3	0	0	0	0	506	511	
4	0	0	0	0	504	509	
5	0	0	0	0	505	513	
6	0	0	0	0	505	513	
7	0	0	0	0	507	512	
8	0	0	0	0	504	513	
9	0	0	0	0	504	511	
10	0	0	0	0	504	511	
11	0	0	0	0	506	514	
12	0	0	0	0	506	513	
13	0	0	0	0	504	511	
14	0	0	0	0	507	511	
15	0	0	0	0	506	512	
0	0	0	0	0	507	510	
1	0	0	0	0	507	512	
2	0	0	0	0	505	512	
3	0	0	0	0	506	512	
4	0	0	0	0	506	512	
5	0	0	0	0	505	511	
6	0	0	0	0	504	509	
7	0	0	0	0	507	510	
8	0	0	0	0	504	514	
9	0	0	0	0	505	511	
10	0	0	0	0	506	510	
11	0	0	0	0	507	512	
12	0	0	0	0	506	512	
13	0	0	0	0	505	512	
14	0	0	0	0	506	510	
15	0	0	0	0	504	512	
0	0	0	0	0	505	511	
1	0	0	0	0	506	511	
2	0	0	0	0	505	510	
3	0	0	0	0	504	512	
4	0	0	0	0	505	512	
5	0	0	0	0	504	512	
6	0	0	0	0	504	513	
7	0	0	0	0	507	513	
8	0	0	0	0	505	513	
9	0	0	0	0	505	510	
10	0	0	0	0	506	510	
11	0	0	0	0	507	511	
12	0	0	0	0	504	512	
13	0	0	0	0	504	513	
14	0	0	0	0	505	514	
15	0	0	0	0	504	511	
0	0	0	0	0	505	513	
1	0	0	0	0	505	509	
2	0	0	0	0	507	510	
3	0	0	0	0	505	510	
4	0	0	0	0	506	510	
5	0	0	0	0	505	512	
6	0	0	0	0	506	513	
7	0	0	0	0	506	512	
8	0	0	0	0	504	513	
9	0	0	0	0	504	511	
10	0	0	0	0	507	511	
11	0	0	0	0	508	512	
12	0	0	0	0	507	512	
13	0	0	0	0	507	512	
14	0	0	0	0	504	512	
15	0	0	0	0	505	513	
0	0	0	0	0	504	513	
1	0	0	0	0	506	513	
2	0	0	0	0	506	512	
3	0	0	0	0	505	512	
4	0	0	0	0	504	512	
5	0	0	0	0	505	511	
6	0	0	0	0	504	510	
7	0	0	0	0	505	510	
8	0	0	0	0	506	511	
9	0	0	0	0	507	512	
10	0	0	0	0	505	511	
11	0	0	0	0	506	512	
12	0	0	0	0	505	512	
13	0	0	0	0	506	512	
14	0	0	0	0	507	512	
15	0	0	0	0	504	514	
0	0	0	0	0	503	511	
1	0	0	0	0	507	513	
2	0	0	0	0	505	511	
3	0	0	0	0	507	512	
4	0	0	0	0	505	512	
5	0	0	0	0	504	511	
6	0	0	0	0	505	513	
7	0	0	0	0	506	510	
8	0	0	0	0	505	513	
9	0	0	0	0	505	512	
10	0	0	0	0	505	511	
11	0	0	0	0	504	510	
12	0	0	0	0	505	511	
13	0	0	0	0	505	511	
14	0	0	0	0	504	511	
15	0	0	0	0	504	511	
0	0	0	0	0	506	513	
1	0	0	0	0	506	512	
2	0	0	0	0	504	512	
3	0	0	0	0	505	512	
4	0	0	0	0	508	513	
5	0	0	0	0	504	512	
6	0	0	0	0	504	511	
7	0	0	0	0	505	510	
8	0	0	0	0	506	511	
9	0	0	0	0	504	513	
10	0	0	0	0	504	513	
11	0	0	0	0	505	511	
12	0	0	0	0	506	512	
13	0	0	0	0	507	511	
14	0	0	0	0	505	513	
15	0	0	0	0	504	511	
0	0	0	0	0	505	511	
1	0	0	0	0	507	512	
2	0	0	0	0	505	512	
3	0	0	0	0	505	513	
4	0	0	0	0	504	513	
5	0	0	0	0	506	512	
6	0	0	0	0	505	511	
7	0	0	0	0	506	512	
8	0	0	0	0	507	513	
9	0	0	0	0	506	511	
10	0	0	0	0	504	512	
11	0	0	0	0	507	511	
12	0	0	0	0	504	512	
13	0	0	0	0	504	511	
14	0	0	0	0	507	511	
15	0	0	0	0	507	511	
0	0	0	0	0	506	512	
1	0	0	0	0	504	512	
2	0	0	0	0	504	512	
3	0	0	0	0	503	511	
4	0	0	0	0	506	513	
5	0	0	0	0	506	513	
6	0	0	0	0	507	510	
7	0	0	0	0	505	513	
8	0	0	0	0	504	513	
9	0	0	0	0	504	513	
10	0	0	0	0	507	513	
11	0	0	0	0	507	511	
12	0	0	0	0	506	511	
13	0	0	0	0	505	511	
14	0	0	0	0	507	515	
15	0	0	0	0	507	511	
0	0	0	0	0	505	511	
1	0	0	0	0	507	510	
2	0	0	0	0	505	511	
3	0	0	0	0	503	510	
4	0	0	0	0	504	512	
5	0	0	0	0	505	513	
6	0	0	0	0	504	511	
7	0	0	0	0	507	511	
8	0	0	0	0	505	512	
9	0	0	0	0	503	511	
10	0	0	0	0	507	512	
11	0	0	0	0	507	511	
12	0	0	0	0	507	513	
13	0	0	0	0	505	510	
14	0	0	0	0	506	514	
15	0	0	0	0	504	511	
0	0	0	0	0	505	512	
1	0	0	0	0	505	513	
2	0	0	0	0	506	512	
3	0	0	0	0	507	513	
4	0	0	0	0	505	510	
5	0	0	0	0	503	512	
6	0	0	0	0	507	515	
7	0	0	0	0	505	513	
8	0	0	0	0	505	511	
9	0	0	0	0	505	512	
10	0	0	0	0	505	512	
11	0	0	0	0	504	513	
12	0	0	0	0	506	512	
13	0	0	0	0	504	509	
14	0	0	0	0	506	511	
15	0	0	0	0	505	511	
0	0	0	0	0	503	513	
1	0	0	0	0	504	512	
2	0	0	0	0	506	513	
3	0	0	0	0	505	511	
4	0	0	0	0	504	509	
5	0	0	0	0	506	511	
6	0	0	0	0	508	512	
7	0	0	0	0	506	511	
8	0	0	0	0	505	512	
9	0	0	0	0	505	511	
10	0	0	0	0	505	512	
11	0	0	0	0	506	512	
12	0	0	0	0	505	511	
13	0	0	0	0	505	513	
14	0	0	0	0	507	513	
15	0	0	0	0	507	513	
0	0	0	0	0	504	511	
1	0	0	0	0	505	512	
2	0	0	0	0	505	511	
3	0	0	0	0	505	512	
4	0	0	0	0	502	512	
5	0	0	0	0	506	512	
6	0	0	0	0	505	511	
7	0	0	0	0	504	512	
8	0	0	0	0	507	510	
9	0	0	0	0	504	513	
10	0	0	0	0	504	512	
11	0	0	0	0	505	513	
12	0	0	0	0	504	513	
13	0	0	0	0	505	511	
14	0	0	0	0	504	513	
15	0	0	0	0	506	511	
0	0	0	0	0	506	512	
1	0	0	0	0	503	513	
2	0	0	0	0	507	510	
3	0	0	0	0	506	510	
4	0	0	0	0	505	509	
5	0	0	0	0	508	513	
6	0	0	0	0	505	512	
7	0	0	0	0	504	512	
8	0	0	0	0	504	514	
9	0	0	0	0	505	510	
10	0	0	0	0	506	510	
11	0	0	0	0	505	511	
12	0	0	0	0	504	511	
13	0	0	0	0	505	513	
14	0	0	0	0	506	510	
15	0	0	0	0	506	512	
0	0	0	0	0	507	513	
1	0	0	0	0	504	511	
2	0	0	0	0	506	512	
3	0	0	0	0	506	514	
4	0	0	0	0	505	512	
5	0	0	0	0	504	510	
6	0	0	0	0	505	512	
7	0	0	0	0	507	512	
8	0	0	0	0	506	513	
9	0	0	0	0	507	512	
10	0	0	0	0	506	511	
11	0	0	0	0	506	512	
12	0	0	0	0	507	509	
13	0	0	0	0	506	511	
14	0	0	0	0	506	511	
15	0	0	0	0	504	513	
0	0	0	0	0	505	511	
1	0	0	0	0	504	511	
2	0	0	0	0	506	512	
3	0	0	0	0	507	512	
4	0	0	0	0	504	513	
5	0	0	0	0	504	512	
6	0	0	0	0	508	512	
7	0	0	0	0	505	513	
8	0	0	0	0	504	514	
9	0	0	0	0	505	511	
10	0	0	0	0	505	510	
11	0	0	0	0	505	511	
12	0	0	0	0	506	512	
13	0	0	0	0	504	513	
14	0	0	0	0	505	512	
15	0	0	0	0	506	511	
0	0	0	0	0	505	511	
1	0	0	0	0	507	511	
2	0	0	0	0	507	512	
3	0	0	0	0	507	513	
4	0	0	0	0	504	512	
5	0	0	0	0	506	512	
6	0	0	0	0	506	513	
7	0	0	0	0	504	512	
8	0	0	0	0	505	512	
9	0	0	0	0	505	512	
10	0	0	0	0	508	512	
11	0	0	0	0	507	512	
12	0	0	0	0	505	512	
13	0	0	0	0	506	509	
14	0	0	0	0	504	511	
15	0	0	0	0	505	510	
0	0	0	0	0	504	508	
1	0	0	0	0	505	511	
2	0	0	0	0	505	510	
3	0	0	0	0	505	512	
4	0	0	0	0	505	512	
5	0	0	0	0	504	513	
6	0	0	0	0	505	513	
7	0	0	0	0	505	513	
8	0	0	0	0	506	510	
9	0	0	0	0	508	514	
10	0	0	0	0	507	512	
11	0	0	0	0	506	511	
12	0	0	0	0	507	514	
13	0	0	0	0	508	512	
14	0	0	0	0	507	512	
15	0	0	0	0	505	511	
0	0	0	0	0	504	511	
1	0	0	0	0	506	513	
2	0	0	0	0	504	512	
3	0	0	0	0	503	512	
4	0	0	0	0	505	510	
5	0	0	0	0	506	513	
6	0	0	0	0	505	512	
7	0	0	0	0	506	512	
8	0	0	0	0	504	513	
9	0	0	0	0	506	513	
10	0	0	0	0	505	510	
11	0	0	0	0	504	512	
12	0	0	0	0	506	512	
13	0	0	0	0	506	512	
14	0	0	0	0	508	513	
15	0	0	0	0	505	511	
0	0	0	0	0	504	510	
1	0	0	0	0	506	511	
2	0	0	0	0	502	513	
3	0	0	0	0	504	511	
4	0	0	0	0	506	512	
5	0	0	0	0	505	512	
6	0	0	0	0	505	512	
7	0	0	0	0	505	513	
8	0	0	0	0	505	512	
9	0	0	0	0	505	513	
10	0	0	0	0	504	512	
11	0	0	0	0	506	511	
12	0	0	0	0	508	511	
13	0	0	0	0	507	512	
14	0	0	0	0	507	513	
15	0	0	0	0	507	511	
0	0	0	0	0	506	512	
1	0	0	0	0	504	512	
2	0	0	0	0	507	510	
3	0	0	0	0	506	511	
4	0	0	0	0	505	512	
5	0	0	0	0	504	513	
6	0	0	0	0	506	512	
7	0	0	0	0	504	513	
8	0	0	0	0	504	512	
9	0	0	0	0	506	512	
10	0	0	0	0	507	513	
11	0	0	0	0	506	512	
12	0	0	0	0	506	512	
13	0	0	0	0	504	511	
14	0	0	0	0	506	511	
15	0	0	0	0	506	511	
0	0	0	0	0	504	512	
1	0	0	0	0	506	513	
2	0	0	0	0	505	513	
3	0	0	0	0	507	511	
4	0	0	0	0	505	511	
5	0	0	0	0	507	513	
6	0	0	0	0	504	511	
7	0	0	0	0	507	512	
8	0	0	0	0	506	512	
9	0	0	0	0	505	513	
10	0	0	0	0	505	512	
11	0	0	0	0	505	513	
12	0	0	0	0	504	513	
13	0	0	0	0	505	512	
14	0	0	0	0	506	512	
15	0	0	0	0	505	512	
0	0	0	0	0	506	512	
1	0	0	0	0	506	511	
2	0	0	0	0	505	511	
3	0	0	0	0	504	510	
4	0	0	0	0	504	512	
5	0	0	0	0	505	512	
6	0	0	0	0	504	513	
7	0	0	0	0	506	511	
8	0	0	0	0	505	513	
9	0	0	0	0	505	511	
10	0	0	0	0	507	512	
11	0	0	0	0	505	513	
12	0	0	0	0	505	515	
13	0	0	0	0	504	512	
14	0	0	0	0	507	512	
15	0	0	0	0	505	513	
0	0	0	0	0	507	509	
1	0	0	0	0	504	512	
2	0	0	0	0	505	509	
3	0	0	0	0	506	510	
4	0	0	0	0	505	510	
5	0	0	0	0	508	513	
6	0	0	0	0	507	513	
7	0	0	0	0	506	511	
8	0	0	0	0	505	513	
9	0	0	0	0	505	512	
10	0	0	0	0	505	513	
11	0	0	0	0	505	514	
12	0	0	0	0	506	511	
13	0	0	0	0	505	512	
14	0	0	0	0	507	511	
15	0	0	0	0	505	514	
0	0	0	0	0	505	513	
1	0	0	0	0	505	508	
2	0	0	0	0	504	511	
3	0	0	0	0	505	510	
4	0	0	0	0	506	511	
5	0	0	0	0	507	513	
6	0	0	0	0	504	510	
7	0	0	0	0	504	511	
8	0	0	0	0	503	511	
9	0	0	0	0	504	514	
10	0	0	0	0	504	513	
11	0	0	0	0	506	510	
12	0	0	0	0	505	512	
13	0	0	0	0	504	511	
14	0	0	0	0	507	512	
15	0	0	0	0	507	512	
0	0	0	0	0	504	512	
1	0	0	0	0	505	513	
2	0	0	0	0	506	511	
3	0	0	0	0	504	512	
4	0	0	0	0	504	511	
5	0	0	0	0	506	510	
6	0	0	0	0	506	513	
7	0	0	0	0	506	511	
8	0	0	0	0	507	511	
9	0	0	0	0	508	511	
10	0	0	0	0	504	511	
11	0	0	0	0	506	512	
12	0	0	0	0	504	512	
13	0	0	0	0	504	513	
14	0	0	0	0	504	510	
15	0	0	0	0	505	511	
0	0	0	0	0	508	513	
1	0	0	0	0	505	512	
2	0	0	0	0	507	509	
3	0	0	0	0	505	511	
4	0	0	0	0	504	512	
5	0	0	0	0	505	511	
6	0	0	0	0	504	512	
7	0	0	0	0	504	513	
8	0	0	0	0	504	512	
9	0	0	0	0	507	512	
10	0	0	0	0	505	512	
11	0	0	0	0	504	511	
12	0	0	0	0	505	513	
13	0	0	0	0	504	513	
14	0	0	0	0	508	513	
15	0	0	0	0	505	511	
0	0	0	0	0	507	511	
1	0	0	0	0	506	512	
2	0	0	0	0	506	512	
3	0	0	0	0	507	511	
4	0	0	0	0	507	511	
5	0	0	0	0	505	510	
6	0	0	0	0	508	511	
7	0	0	0	0	504	512	
8	0	0	0	0	504	512	
9	0	0	0	0	506	515	
10	0	0	0	0	503	513	
11	0	0	0	0	507	512	
12	0	0	0	0	506	511	
13	0	0	0	0	507	513	
14	0	0	0	0	504	511	
15	0	0	0	0	504	511	
0	0	0	0	0	506	511	
1	0	0	0	0	507	513	
2	0	0	0	0	506	512	
3	0	0	0	0	505	511	
4	0	0	0	0	506	510	
5	0	0	0	0	506	512	
6	0	0	0	0	504	512	
7	0	0	0	0	504	512	
8	0	0	0	0	504	512	
9	0	0	0	0	506	512	
10	0	0	0	0	504	512	
11	0	0	0	0	505	512	
12	0	0	0	0	507	513	
13	0	0	0	0	504	511	
14	0	0	0	0	505	512	
15	0	0	0	0	508	511	
0	0	0	0	0	504	513	
1	0	0	0	0	503	512	
2	0	0	0	0	504	512	
3	0	0	0	0	507	512	
4	0	0	0	0	507	512	
5	0	0	0	0	506	513	
6	0	0	0	0	507	512	
7	0	0	0	0	507	511	
8	0	0	0	0	507	511	
9	0	0	0	0	508	511	
10	0	0	0	0	506	512	
11	0	0	0	0	505	512	
12	0	0	0	0	504	512	
13	0	0	0	0	505	510	
14	0	0	0	0	505	512	
15	0	0	0	0	505	512	
0	0	0	0	0	503	511	
1	0	0	0	0	505	512	
2	0	0	0	0	504	510	
3	0	0	0	0	504	511	
4	0	0	0	0	504	511	
5	0	0	0	0	505	510	
6	0	0	0	0	504	512	
7	0	0	0	0	504	512	
8	0	0	0	0	506	511	
9	0	0	0	0	505	513	
10	0	0	0	0	506	511	
11	0	0	0	0	506	510	
12	0	0	0	0	505	513	
13	0	0	0	0	505	511	
14	0	0	0	0	507	512	
15	0	0	0	0	505	512	
0	0	0	0	0	504	511	
1	0	0	0	0	507	513	
2	0	0	0	0	505	514	
3	0	0	0	0	508	511	
4	0	0	0	0	504	512	
5	0	0	0	0	506	512	
6	0	0	0	0	505	511	
7	0	0	0	0	503	511	
8	0	0	0	0	507	512	
9	0	0	0	0	508	511	
10	0	0	0	0	508	512	
11	0	0	0	0	505	511	
12	0	0	0	0	505	511	
13	0	0	0	0	505	512	
14	0	0	0	0	506	511	
15	0	0	0	0	504	512	
0	0	0	0	0	506	512	
1	0	0	0	0	505	511	
2	0	0	0	0	506	513	
3	0	0	0	0	503	513	
4	0	0	0	0	505	511	
5	0	0	0	0	504	513	
6	0	0	0	0	507	513	
7	0	0	0	0	506	513	
8	0	0	0	0	504	511	
9	0	0	0	0	507	513	
10	0	0	0	0	505	510	
11	0	0	0	0	505	511	
12	0	0	0	0	505	511	
13	0	0	0	0	504	511	
14	0	0	0	0	504	513	
15	0	0	0	0	506	510	
0	0	0	0	0	505	513	
1	0	0	0	0	506	513	
2	0	0	0	0	508	513	
3	0	0	0	0	507	511	
4	0	0	0	0	507	511	
5	0	0	0	0	505	512	
6	0	0	0	0	505	512	
7	0	0	0	0	506	511	
8	0	0	0	0	505	511	
9	0	0	0	0	505	509	
10	0	0	0	0	507	510	
11	0	0	0	0	507	514	
12	0	0	0	0	504	512	
13	0	0	0	0	504	512	
14	0	0	0	0	504	513	
15	0	0	0	0	506	513	
0	0	0	0	0	505	513	
1	0	0	0	0	505	510	
2	0	0	0	0	507	511	
3	0	0	0	0	507	510	
4	0	0	0	0	505	511	
5	0	0	0	0	507	512	
6	0	0	0	0	505	513	
7	0	0	0	0	506	510	
8	0	0	0	0	506	512	
9	0	0	0	0	503	512	
10	0	0	0	0	504	513	
11	0	0	0	0	504	513	
12	0	0	0	0	504	512	
13	0	0	0	0	507	511	
14	0	0	0	0	505	512	
15	0	0	0	0	504	512	
0	0	0	0	0	504	512	
1	0	0	0	0	505	511	
2	0	0	0	0	505	511	
3	0	0	0	0	506	510	
4	0	0	0	0	503	512	
5	0	0	0	0	507	512	
6	0	0	0	0	504	512	
7	0	0	0	0	506	512	
8	0	0	0	0	504	513	
9	0	0	0	0	505	511	
10	0	0	0	0	505	512	
11	0	0	0	0	506	512	
12	0	0	0	0	507	511	
13	0	0	0	0	505	511	
14	0	0	0	0	504	513	
15	0	0	0	0	506	512	
0	0	0	0	0	504	511	
1	0	0	0	0	504	511	
2	0	0	0	0	506	512	
3	0	0	0	0	507	511	
4	0	0	0	0	505	512	
5	0	0	0	0	506	513	
6	0	0	0	0	506	512	
7	0	0	0	0	507	512	
8	0	0	0	0	505	511	
9	0	0	0	0	505	512	
10	0	0	0	0	505	511	
11	0	0	0	0	506	510	
12	0	0	0	0	505	511	
13	0	0	0	0	505	511	
14	0	0	0	0	505	512	
15	0	0	0	0	505	512	
0	0	0	0	0	504	511	
1	0	0	0	0	508	511	
2	0	0	0	0	508	514	
3	0	0	0	0	505	511	
4	0	0	0	0	507	514	
5	0	0	0	0	504	514	
6	0	0	0	0	504	512	
7	0	0	0	0	504	512	
8	0	0	0	0	504	510	
9	0	0	0	0	505	511	
10	0	0	0	0	505	513	
11	0	0	0	0	507	510	
12	0	0	0	0	505	512	
13	0	0	0	0	505	511	
14	0	0	0	0	505	512	
15	0	0	0	0	505	511	
0	0	0	0	0	504	511	
1	0	0	0	0	507	512	
2	0	0	0	0	505	512	
3	0	0	0	0	505	513	
4	0	0	0	0	503	512	
5	0	0	0	0	505	511	
6	0	0	0	0	505	511	
7	0	0	0	0	508	514	
8	0	0	0	0	503	511	
9	0	0	0	0	505	511	
10	0	0	0	0	505	511	
11	0	0	0	0	506	512	
12	0	0	0	0	505	513	
13	0	0	0	0	505	512	
14	0	0	0	0	507	513	
15	0	0	0	0	505	512	
0	0	0	0	0	507	510	
1	0	0	0	0	506	513	
2	0	0	0	0	505	512	
3	0	0	0	0	505	512	
4	0	0	0	0	507	512	
5	0	0	0	0	505	514	
6	0	0	0	0	506	512	
7	0	0	0	0	505	510	
8	0	0	0	0	506	511	
9	0	0	0	0	505	512	
10	0	0	0	0	504	514	
11	0	0	0	0	505	513	
12	0	0	0	0	506	512	
13	0	0	0	0	505	510	
14	0	0	0	0	504	511	
15	0	0	0	0	506	512	
0	0	0	0	0	504	511	
1	0	0	0	0	505	512	
2	0	0	0	0	504	514	
3	0	0	0	0	504	512	
4	0	0	0	0	506	510	
5	0	0	0	0	504	512	
6	0	0	0	0	507	512	
7	0	0	0	0	504	511	
8	0	0	0	0	508	512	
9	0	0	0	0	508	513	
10	0	0	0	0	505	514	
11	0	0	0	0	505	510	
12	0	0	0	0	505	513	
13	0	0	0	0	505	511	
14	0	0	0	0	505	512	
15	0	0	0	0	506	510	
0	0	0	0	0	505	512	
1	0	0	0	0	508	511	
2	0	0	0	0	507	512	
3	0	0	0	0	505	511	
4	0	0	0	0	506	511	
5	0	0	0	0	505	513	
6	0	0	0	0	504	513	
7	0	0	0	0	505	511	
8	0	0	0	0	505	512	
9	0	0	0	0	505	511	
10	0	0	0	0	504	511	
11	0	0	0	0	504	513	
12	0	0	0	0	504	511	
13	0	0	0	0	504	512	
14	0	0	0	0	505	512	
15	0	0	0	0	506	511	
0	0	0	0	0	505	515	
1	0	0	0	0	505	510	
2	0	0	0	0	508	513	
3	0	0	0	0	506	512	
4	0	0	0	0	507	511	
5	0	0	0	0	506	511	
6	0	0	0	0	506	510	
7	0	0	0	0	505	512	
8	0	0	0	0	507	512	
9	0	0	0	0	505	512	
10	0	0	0	0	505	512	
11	0	0	0	0	506	511	
12	0	0	0	0	504	510	
13	0	0	0	0	505	510	
14	0	0	0	0	505	511	
15	0	0	0	0	506	512	
0	0	0	0	0	505	513	
1	0	0	0	0	504	511	
2	0	0	0	0	507	511	
3	0	0	0	0	505	511	
4	0	0	0	0	507	511	
5	0	0	0	0	504	512	
6	0	0	0	0	504	512	
7	0	0	0	0	505	511	
8	0	0	0	0	505	511	
9	0	0	0	0	507	512	
10	0	0	0	0	506	514	
11	0	0	0	0	505	513	
12	0	0	0	0	506	512	
13	0	0	0	0	508	512	
14	0	0	0	0	507	512	
15	0	0	0	0	505	512	
0	0	0	0	0	506	513	
1	0	0	0	0	507	511	
2	0	0	0	0	505	512	
3	0	0	0	0	505	510	
4	0	0	0	0	504	512	
5	0	0	0	0	504	513	
6	0	0	0	0	506	512	
7	0	0	0	0	505	512	
8	0	0	0	0	507	512	
9	0	0	0	0	504	512	
10	0	0	0	0	504	512	
11	0	0	0	0	505	511	
12	0	0	0	0	505	514	
13	0	0	0	0	507	511	
14	0	0	0	0	504	512	
15	0	0	0	0	504	512	
0	0	0	0	0	505	510	
1	0	0	0	0	507	512	
2	0	0	0	0	507	511	
3	0	0	0	0	508	512	
4	0	0	0	0	505	512	
5	0	0	0	0	505	511	
6	0	0	0	0	505	512	
7	0	0	0	0	505	512	
8	0	0	0	0	505	515	
9	0	0	0	0	504	512	
10	0	0	0	0	505	512	
11	0	0	0	0	505	511	
12	0	0	0	0	505	511	
13	0	0	0	0	504	512	
14	0	0	0	0	504	512	
15	0	0	0	0	507	511	
0	0	0	0	0	507	511	
1	0	0	0	0	506	510	
2	0	0	0	0	505	511	
3	0	0	0	0	505	513	
4	0	0	0	0	504	512	
5	0	0	0	0	504	510	
6	0	0	0	0	506	511	
7	0	0	0	0	507	513	
8	0	0	0	0	504	513	
9	0	0	0	0	504	511	
10	0	0	0	0	504	511	
11	0	0	0	0	506	512	
12	0	0	0	0	505	512	
13	0	0	0	0	507	510	
14	0	0	0	0	504	513	
15	0	0	0	0	503	513	
0	0	0	0	0	504	513	
1	0	0	0	0	507	513	
2	0	0	0	0	505	513	
3	0	0	0	0	505	510	
4	0	0	0	0	505	510	
5	0	0	0	0	504	511	
6	0	0	0	0	507	511	
7	0	0	0	0	505	510	
8	0	0	0	0	506	511	
9	0	0	0	0	506	511	
10	0	0	0	0	506	513	
11	0	0	0	0	505	511	
12	0	0	0	0	505	510	
13	0	0	0	0	505	512	
14	0	0	0	0	507	513	
15	0	0	0	0	507	512	
0	0	0	0	0	505	512	
1	0	0	0	0	508	510	
2	0	0	0	0	504	510	
3	0	0	0	0	505	512	
4	0	0	0	0	504	512	
5	0	0	0	0	507	513	
6	0	0	0	0	505	513	
7	0	0	0	0	504	512	
8	0	0	0	0	505	513	
9	0	0	0	0	505	513	
10	0	0	0	0	505	512	
11	0	0	0	0	505	512	
12	0	0	0	0	505	510	
13	0	0	0	0	506	510	
14	0	0	0	0	504	512	
15	0	0	0	0	507	510	
0	0	0	0	0	503	513	
1	0	0	0	0	506	512	
2	0	0	0	0	504	511	
3	0	0	0	0	506	513	
4	0	0	0	0	507	512	
5	0	0	0	0	505	512	
6	0	0	0	0	506	515	
7	0	0	0	0	503	512	
8	0	0	0	0	507	511	
9	0	0	0	0	506	512	
10	0	0	0	0	507	512	
11	0	0	0	0	507	512	
12	0	0	0	0	506	511	
13	0	0	0	0	507	512	
14	0	0	0	0	505	510	
15	0	0	0	0	504	512	
0	0	0	0	0	507	514	
1	0	0	0	0	505	513	
2	0	0	0	0	504	512	
3	0	0	0	0	504	512	
4	0	0	0	0	505	513	
5	0	0	0	0	505	513	
6	0	0	0	0	507	512	
7	0	0	0	0	506	513	
8	0	0	0	0	506	512	
9	0	0	0	0	504	512	
10	0	0	0	0	505	511	
11	0	0	0	0	506	511	
12	0	0	0	0	505	509	
13	0	0	0	0	506	510	
14	0	0	0	0	508	512	
15	0	0	0	0	505	512	
0	0	0	0	0	506	510	
1	0	0	0	0	505	510	
2	0	0	0	0	505	511	
3	0	0	0	0	506	511	
4	0	0	0	0	505	511	
5	0	0	0	0	506	511	
6	0	0	0	0	504	512	
7	0	0	0	0	506	513	
8	0	0	0	0	505	513	
9	0	0	0	0	505	514	
10	0	0	0	0	504	512	
11	0	0	0	0	505	512	
12	0	0	0	0	506	512	
13	0	0	0	0	505	513	
14	0	0	0	0	505	511	
15	0	0	0	0	507	513	
0	0	0	0	0	504	511	
1	0	0	0	0	504	510	
2	0	0	0	0	505	513	
3	0	0	0	0	504	510	
4	0	0	0	0	505	511	
5	0	0	0	0	508	512	
6	0	0	0	0	507	512	
7	0	0	0	0	505	512	
8	0	0	0	0	507	513	
9	0	0	0	0	506	512	
10	0	0	0	0	504	512	
11	0	0	0	0	504	512	
12	0	0	0	0	507	511	
13	0	0	0	0	504	512	
14	0	0	0	0	505	513	
15	0	0	0	0	507	512	
0	0	0	0	0	506	511	
1	0	0	0	0	506	515	
2	0	0	0	0	504	512	
3	0	0	0	0	506	510	
4	0	0	0	0	506	511	
5	0	0	0	0	507	512	
6	0	0	0	0	504	512	
7	0	0	0	0	504	511	
8	0	0	0	0	506	510	
9	0	0	0	0	504	512	
10	0	0	0	0	505	512	
11	0	0	0	0	505	509	
12	0	0	0	0	506	511	
13	0	0	0	0	504	512	
14	0	0	0	0	504	513	
15	0	0	0	0	506	515	
0	0	0	0	0	506	511	
1	0	0	0	0	507	510	
2	0	0	0	0	508	512	
3	0	0	0	0	505	513	
4	0	0	0	0	507	512	
5	0	0	0	0	506	513	
6	0	0	0	0	505	511	
7	0	0	0	0	505	513	
8	0	0	0	0	505	512	
9	0	0	0	0	506	511	
10	0	0	0	0	505	512	
11	0	0	0	0	505	512	
12	0	0	0	0	505	511	
13	0	0	0	0	506	511	
14	0	0	0	0	504	512	
15	0	0	0	0	504	511	
0	0	0	0	0	505	513	
1	0	0	0	0	505	514	
2	0	0	0	0	506	510	
3	0	0	0	0	507	512	
4	0	0	0	0	505	511	
5	0	0	0	0	506	510	
6	0	0	0	0	504	510	
7	0	0	0	0	505	510	
8	0	0	0	0	506	512	
9	0	0	0	0	504	513	
10	0	0	0	0	507	512	
11	0	0	0	0	506	510	
12	0	0	0	0	507	511	
13	0	0	0	0	506	514	
14	0	0	0	0	504	511	
15	0	0	0	0	505	512	
0	0	0	0	0	505	511	
1	0	0	0	0	502	510	
2	0	0	0	0	503	512	
3	0	0	0	0	505	511	
4	0	0	0	0	505	510	
5	0	0	0	0	504	510	
6	0	0	0	0	504	512	
7	0	0	0	0	504	513	
8	0	0	0	0	504	513	
9	0	0	0	0	504	512	
10	0	0	0	0	507	512	
11	0	0	0	0	507	512	
12	0	0	0	0	507	513	
13	0	0	0	0	504	512	
14	0	0	0	0	507	513	
15	0	0	0	0	506	510	
0	0	0	0	0	507	511	
1	0	0	0	0	505	511	
2	0	0	0	0	505	513	
3	0	0	0	0	507	515	
4	0	0	0	0	505	513	
5	0	0	0	0	506	512	
6	0	0	0	0	505	512	
7	0	0	0	0	505	511	
8	0	0	0	0	507	512	
9	0	0	0	0	504	512	
10	0	0	0	0	505	511	
11	0	0	0	0	504	510	
12	0	0	0	0	508	511	
13	0	0	0	0	507	511	
14	0	0	0	0	508	511	
15	0	0	0	0	504	511	
0	0	0	0	0	505	513	
1	0	0	0	0	506	513	
2	0	0	0	0	505	511	
3	0	0	0	0	506	511	
4	0	0	0	0	505	511	
5	0	0	0	0	504	512	
6	0	0	0	0	504	513	
7	0	0	0	0	505	511	
8	0	0	0	0	506	513	
9	0	0	0	0	508	513	
10	0	0	0	0	505	511	
11	0	0	0	0	505	512	
12	0	0	0	0	505	512	
13	0	0	0	0	507	513	
14	0	0	0	0	504	511	
15	0	0	0	0	506	513	
0	0	0	0	0	506	509	
1	0	0	0	0	503	512	
2	0	0	0	0	504	514	
3	0	0	0	0	504	513	
4	0	0	0	0	505	511	
5	0	0	0	0	506	511	
6	0	0	0	0	505	512	
7	0	0	0	0	505	511	
8	0	0	0	0	505	512	
9	0	0	0	0	505	511	
10	0	0	0	0	507	513	
11	0	0	0	0	505	510	
12	0	0	0	0	506	512	
13	0	0	0	0	505	511	
14	0	0	0	0	505	512	
15	0	0	0	0	505	513	
0	0	0	0	0	505	511	
1	0	0	0	0	504	512	
2	0	0	0	0	504	511	
3	0	0	0	0	505	513	
4	0	0	0	0	505	512	
5	0	0	0	0	505	513	
6	0	0	0	0	506	512	
7	0	0	0	0	506	512	
8	0	0	0	0	506	513	
9	0	0	0	0	505	511	
10	0	0	0	0	504	510	
11	0	0	0	0	507	510	
12	0	0	0	0	506	511	
13	0	0	0	0	506	511	
14	0	0	0	0	507	513	
15	0	0	0	0	506	512	
0	0	0	0	0	505	513	
1	0	0	0	0	505	510	
2	0	0	0	0	508	510	
3	0	0	0	0	505	514	
4	0	0	0	0	505	511	
5	0	0	0	0	507	512	
6	0	0	0	0	506	511	
7	0	0	0	0	506	511	
8	0	0	0	0	508	513	
9	0	0	0	0	504	515	
10	0	0	0	0	507	513	
11	0	0	0	0	506	511	
12	0	0	0	0	505	512	
13	0	0	0	0	505	513	
14	0	0	0	0	506	511	
15	0	0	0	0	505	511	
0	0	0	0	0	504	511	
1	0	0	0	0	503	511	
2	0	0	0	0	505	511	
3	0	0	0	0	506	510	
4	0	0	0	0	506	511	
5	0	0	0	0	506	510	
6	0	0	0	0	505	512	
7	0	0	0	0	505	514	
8	0	0	0	0	505	512	
9	0	0	0	0	507	512	
10	0	0	0	0	508	510	
11	0	0	0	0	505	512	
12	0	0	0	0	505	511	
13	0	0	0	0	506	512	
14	0	0	0	0	504	511	
15	0	0	0	0	503	512	
0	0	0	0	0	502	512	
1	0	0	0	0	505	512	
2	0	0	0	0	507	512	
3	0	0	0	0	504	512	
4	0	0	0	0	507	512	
5	0	0	0	0	505	510	
6	0	0	0	0	504	511	
7	0	0	0	0	503	512	
8	0	0	0	0	505	512	
9	0	0	0	0	505	512	
10	0	0	0	0	506	511	
11	0	0	0	0	505	511	
12	0	0	0	0	505	511	
13	0	0	0	0	504	511	
14	0	0	0	0	507	510	
15	0	0	0	0	504	512	
0	0	0	0	0	507	514	
1	0	0	0	0	507	511	
2	0	0	0	0	505	512	
3	0	0	0	0	504	511	
4	0	0	0	0	504	512	
5	0	0	0	0	505	513	
6	0	0	0	0	505	511	
7	0	0	0	0	505	511	
8	0	0	0	0	505	512	
9	0	0	0	0	505	513	
10	0	0	0	0	507	512	
11	0	0	0	0	506	511	
12	0	0	0	0	506	512	
13	0	0	0	0	507	511	
14	0	0	0	0	504	512	
15	0	0	0	0	505	513	
0	0	0	0	0	506	512	
1	0	0	0	0	506	511	
2	0	0	0	0	505	512	
3	0	0	0	0	506	514	
4	0	0	0	0	505	513	
5	0	0	0	0	505	513	
6	0	0	0	0	507	513	
7	0	0	0	0	508	511	
8	0	0	0	0	505	512	
9	0	0	0	0	507	511	
10	0	0	0	0	506	510	
11	0	0	0	0	504	510	
12	0	0	0	0	504	512	
13	0	0	0	0	506	512	
14	0	0	0	0	508	512	
15	0	0	0	0	505	512	
0	0	0	0	0	504	514	
1	0	0	0	0	503	512	
2	0	0	0	0	505	513	
3	0	0	0	0	505	514	
4	0	0	0	0	504	512	
5	0	0	0	0	505	512	
6	0	0	0	0	505	513	
7	0	0	0	0	505	513	
8	0	0	0	0	504	511	
9	0	0	0	0	504	511	
10	0	0	0	0	505	512	
11	0	0	0	0	507	511	
12	0	0	0	0	505	513	
13	0	0	0	0	505	512	
14	0	0	0	0	506	509	
15	0	0	0	0	507	513	
0	0	0	0	0	506	512	
1	0	0	0	0	505	511	
2	0	0	0	0	504	511	
3	0	0	0	0	507	513	
4	0	0	0	0	506	513	
5	0	0	0	0	505	512	
6	0	0	0	0	505	511	
7	0	0	0	0	505	510	
8	0	0	0	0	504	510	
9	0	0	0	0	507	513	
10	0	0	0	0	507	512	
11	0	0	0	0	506	511	
12	0	0	0	0	504	511	
13	0	0	0	0	506	511	
14	0	0	0	0	505	511	
15	0	0	0	0	506	511	
0	0	0	0	0	504	511	
1	0	0	0	0	504	512	
2	0	0	0	0	505	512	
3	0	0	0	0	505	510	
4	0	0	0	0	504	512	
5	0	0	0	0	505	510	
6	0	0	0	0	504	512	
7	0	0	0	0	507	513	
8	0	0	0	0	506	512	
9	0	0	0	0	505	512	
10	0	0	0	0	507	510	
11	0	0	0	0	506	510	
12	0	0	0	0	507	511	
13	0	0	0	0	505	510	
14	0	0	0	0	504	511	
15	0	0	0	0	506	513	
0	0	0	0	0	505	513	
1	0	0	0	0	506	514	
2	0	0	0	0	508	512	
3	0	0	0	0	505	511	
4	0	0	0	0	505	511	
5	0	0	0	0	507	511	
6	0	0	0	0	505	512	
7	0	0	0	0	505	512	
8	0	0	0	0	506	513	
9	0	0	0	0	505	510	
10	0	0	0	0	504	510	
11	0	0	0	0	504	512	
12	0	0	0	0	505	512	
13	0	0	0	0	506	511	
14	0	0	0	0	505	511	
15	0	0	0	0	505	512	
0	0	0	0	0	505	513	
1	0	0	0	0	505	512	
2	0	0	0	0	508	512	
3	0	0	0	0	505	512	
4	0	0	0	0	505	511	
5	0	0	0	0	504	510	
6	0	0	0	0	504	511	
7	0	0	0	0	505	511	
8	0	0	0	0	505	511	
9	0	0	0	0	506	511	
10	0	0	0	0	505	511	
11	0	0	0	0	504	512	
12	0	0	0	0	506	514	
13	0	0	0	0	507	512	
14	0	0	0	0	504	513	
15	0	0	0	0	507	512	
0	0	0	0	0	506	512	
1	0	0	0	0	505	510	
2	0	0	0	0	505	513	
3	0	0	0	0	506	512	
4	0	0	0	0	507	512	
5	0	0	0	0	505	512	
6	0	0	0	0	506	513	
7	0	0	0	0	507	512	
8	0	0	0	0	504	513	
9	0	0	0	0	505	511	
10	0	0	0	0	507	512	
11	0	0	0	0	505	512	
12	0	0	0	0	505	513	
13	0	0	0	0	503	511	
14	0	0	0	0	506	511	
15	0	0	0	0	507	513	
0	0	0	0	0	507	514	
1	0	0	0	0	504	512	
2	0	0	0	0	505	511	
3	0	0	0	0	506	512	
4	0	0	0	0	505	512	
5	0	0	0	0	504	511	
6	0	0	0	0	505	511	
7	0	0	0	0	507	512	
8	0	0	0	0	506	512	
9	0	0	0	0	505	512	
10	0	0	0	0	505	511	
11	0	0	0	0	507	510	
12	0	0	0	0	505	509	
13	0	0	0	0	505	512	
14	0	0	0	0	505	512	
15	0	0	0	0	503	512	
0	0	0	0	0	506	512	
1	0	0	0	0	505	513	
2	0	0	0	0	504	511	
3	0	0	0	0	504	512	
4	0	0	0	0	504	511	
5	0	0	0	0	506	510	
6	0	0	0	0	507	512	
7	0	0	0	0	507	512	
8	0	0	0	0	507	511	
9	0	0	0	0	505	513	
10	0	0	0	0	504	510	
11	0	0	0	0	505	513	
12	0	0	0	0	505	512	
13	0	0	0	0	504	512	
14	0	0	0	0	505	512	
15	0	0	0	0	506	512	
0	0	0	0	0	505	512	
1	0	0	0	0	505	512	
2	0	0	0	0	504	511	
3	0	0	0	0	505	512	
4	0	0	0	0	508	511	
5	0	0	0	0	505	512	
6	0	0	0	0	506	512	
7	0	0	0	0	504	513	
8	0	0	0	0	505	510	
9	0	0	0	0	505	513	
10	0	0	0	0	505	510	
11	0	0	0	0	504	511	
12	0	0	0	0	506	510	
13	0	0	0	0	504	511	
14	0	0	0	0	506	511	
15	0	0	0	0	505	514	
0	0	0	0	0	505	513	
1	0	0	0	0	505	511	
2	0	0	0	0	506	513	
3	0	0	0	0	505	512	
4	0	0	0	0	504	512	
5	0	0	0	0	505	509	
6	0	0	0	0	505	512	
7	0	0	0	0	507	512	
8	0	0	0	0	505	513	
9	0	0	0	0	506	511	
10	0	0	0	0	504	512	
11	0	0	0	0	504	513	
12	0	0	0	0	504	513	
13	0	0	0	0	507	512	
14	0	0	0	0	506	512	
15	0	0	0	0	505	511	
0	0	0	0	0	505	512	
1	0	0	0	0	505	511	
2	0	0	0	0	504	511	
3	0	0	0	0	504	511	
4	0	0	0	0	505	511	
5	0	0	0	0	505	512	
6	0	0	0	0	505	513	
7	0	0	0	0	504	511	
8	0	0	0	0	505	512	
9	0	0	0	0	507	513	
10	0	0	0	0	508	511	
11	0	0	0	0	505	511	
12	0	0	0	0	505	513	
13	0	0	0	0	505	511	
14	0	0	0	0	504	511	
15	0	0	0	0	505	512	
0	0	0	0	0	505	513	
1	0	0	0	0	505	514	
2	0	0	0	0	507	512	
3	0	0	0	0	505	512	
4	0	0	0	0	507	512	
5	0	0	0	0	504	510	
6	0	0	0	0	506	510	
7	0	0	0	0	505	511	
8	0	0	0	0	505	513	
9	0	0	0	0	507	511	
10	0	0	0	0	507	510	
11	0	0	0	0	507	510	
12	0	0	0	0	503	511	
13	0	0	0	0	505	512	
14	0	0	0	0	506	512	
15	0	0	0	0	504	511	
0	0	0	0	0	505	512	
1	0	0	0	0	504	513	
2	0	0	0	0	507	514	
3	0	0	0	0	505	513	
4	0	0	0	0	505	512	
5	0	0	0	0	504	512	
6	0	0	0	0	507	513	
7	0	0	0	0	505	512	
8	0	0	0	0	505	512	
9	0	0	0	0	505	511	
10	0	0	0	0	504	511	
11	0	0	0	0	505	511	
12	0	0	0	0	505	510	
13	0	0	0	0	505	511	
14	0	0	0	0	505	510	
15	0	0	0	0	506	510	
0	0	0	0	0	507	512	
1	0	0	0	0	504	512	
2	0	0	0	0	504	511	
3	0	0	0	0	505	511	
4	0	0	0	0	507	512	
5	0	0	0	0	505	513	
6	0	0	0	0	507	513	
7	0	0	0	0	505	511	
8	0	0	0	0	504	512	
9	0	0	0	0	505	512	
10	0	0	0	0	505	513	
11	0	0	0	0	507	510	
12	0	0	0	0	507	512	
13	0	0	0	0	505	513	
14	0	0	0	0	504	512	
15	0	0	0	0	505	511	
0	0	0	0	0	505	511	
1	0	0	0	0	506	510	
2	0	0	0	0	506	509	
3	0	0	0	0	506	512	
4	0	0	0	0	504	512	
5	0	0	0	0	504	512	
6	0	0	0	0	504	511	
7	0	0	0	0	507	513	
8	0	0	0	0	505	512	
9	0	0	0	0	506	513	
10	0	0	0	0	507	510	
11	0	0	0	0	507	512	
12	0	0	0	0	505	514	
13	0	0	0	0	505	512	
14	0	0	0	0	504	512	
15	0	0	0	0	504	511	
0	0	0	0	0	505	511	
1	0	0	0	0	507	512	
2	0	0	0	0	505	511	
3	0	0	0	0	507	511	
4	0	0	0	0	504	511	
5	0	0	0	0	504	512	
6	0	0	0	0	505	515	
7	0	0	0	0	505	514	
8	0	0	0	0	504	512	
9	0	0	0	0	505	508	
10	0	0	0	0	507	511	
11	0	0	0	0	504	510	
12	0	0	0	0	506	512	
13	0	0	0	0	507	514	
14	0	0	0	0	505	512	
15	0	0	0	0	506	512	
0	0	0	0	0	504	514	
1	0	0	0	0	504	514	
2	0	0	0	0	506	512	
3	0	0	0	0	504	511	
4	0	0	0	0	505	509	
5	0	0	0	0	506	510	
6	0	0	0	0	507	511	
7	0	0	0	0	505	513	
8	0	0	0	0	507	512	
9	0	0	0	0	506	511	
10	0	0	0	0	505	512	
11	0	0	0	0	504	512	
12	0	0	0	0	507	514	
13	0	0	0	0	507	510	
14	0	0	0	0	504	512	
15	0	0	0	0	506	513	
0	0	0	0	0	504	513	
1	0	0	0	0	507	512	
2	0	0	0	0	507	511	
3	0	0	0	0	504	511	
4	0	0	0	0	504	512	
5	0	0	0	0	505	511	
6	0	0	0	0	504	510	
7	0	0	0	0	505	510	
8	0	0	0	0	504	511	
9	0	0	0	0	504	512	
10	0	0	0	0	505	511	
11	0	0	0	0	507	511	
12	0	0	0	0	507	511	
13	0	0	0	0	505	512	
14	0	0	0	0	504	513	
15	0	0	0	0	504	512	
0	0	0	0	0	504	511	
1	0	0	0	0	504	511	
2	0	0	0	0	507	512	
3	0	0	0	0	507	513	
4	0	0	0	0	505	515	
5	0	0	0	0	506	513	
6	0	0	0	0	506	511	
7	0	0	0	0	507	513	
8	0	0	0	0	506	510	
9	0	0	0	0	506	510	
10	0	0	0	0	505	513	
11	0	0	0	0	506	513	
12	0	0	0	0	504	512	
13	0	0	0	0	504	512	
14	0	0	0	0	507	511	
15	0	0	0	0	503	512	
0	0	0	0	0	505	511	
1	0	0	0	0	504	511	
2	0	0	0	0	504	511	
3	0	0	0	0	505	512	
4	0	0	0	0	506	512	
5	0	0	0	0	505	512	
6	0	0	0	0	505	512	
7	0	0	0	0	506	511	
8	0	0	0	0	508	511	
9	0	0	0	0	506	513	
10	0	0	0	0	503	514	
11	0	0	0	0	504	512	
12	0	0	0	0	507	511	
13	0	0	0	0	506	511	
14	0	0	0	0	504	513	
15	0	0	0	0	505	514	
0	0	0	0	0	507	513	
1	0	0	0	0	505	511	
2	0	0	0	0	506	510	
3	0	0	0	0	505	512	
4	0	0	0	0	504	512	
5	0	0	0	0	505	512	
6	0	0	0	0	507	512	
7	0	0	0	0	505	512	
8	0	0	0	0	505	511	
9	0	0	0	0	504	512	
10	0	0	0	0	506	513	
11	0	0	0	0	507	512	
12	0	0	0	0	505	512	
13	0	0	0	0	505	514	
14	0	0	0	0	506	512	
15	0	0	0	0	505	513	
0	0	0	0	0	504	510	
1	0	0	0	0	505	512	
2	0	0	0	0	508	511	
3	0	0	0	0	507	511	
4	0	0	0	0	504	510	
5	0	0	0	0	504	511	
6	0	0	0	0	503	512	
7	0	0	0	0	505	512	
8	0	0	0	0	507	511	
9	0	0	0	0	504	513	
10	0	0	0	0	504	512	
11	0	0	0	0	506	511	
12	0	0	0	0	506	513	
13	0	0	0	0	504	512	
14	0	0	0	0	507	513	
15	0	0	0	0	507	513	
0	0	0	0	0	508	512	
1	0	0	0	0	505	511	
2	0	0	0	0	505	511	
3	0	0	0	0	507	513	
4	0	0	0	0	507	511	
5	0	0	0	0	503	512	
6	0	0	0	0	505	513	
7	0	0	0	0	507	513	
8	0	0	0	0	504	511	
9	0	0	0	0	504	511	
10	0	0	0	0	506	512	
11	0	0	0	0	506	512	
12	0	0	0	0	505	511	
13	0	0	0	0	506	513	
14	0	0	0	0	507	508	
15	0	0	0	0	507	511	
0	0	0	0	0	505	512	
1	0	0	0	0	504	510	
2	0	0	0	0	504	513	
3	0	0	0	0	506	512	
4	0	0	0	0	505	514	
5	0	0	0	0	505	512	
6	0	0	0	0	507	511	
7	0	0	0	0	505	512	
8	0	0	0	0	504	510	
9	0	0	0	0	506	510	
10	0	0	0	0	505	513	
11	0	0	0	0	507	510	
12	0	0	0	0	506	511	
13	0	0	0	0	506	512	
14	0	0	0	0	504	514	
15	0	0	0	0	504	511	
0	0	0	0	0	504	512	
1	0	0	0	0	505	512	
2	0	0	0	0	504	513	
3	0	0	0	0	507	514	
4	0	0	0	0	505	513	
5	0	0	0	0	507	511	
6	0	0	0	0	504	511	
7	0	0	0	0	504	511	
8	0	0	0	0	505	513	
9	0	0	0	0	505	512	
10	0	0	0	0	505	510	
11	0	0	0	0	504	512	
12	0	0	0	0	505	511	
13	0	0	0	0	506	510	
14	0	0	0	0	507	511	
15	0	0	0	0	507	513	
0	0	0	0	0	504	512	
1	0	0	0	0	506	512	
2	0	0	0	0	507	512	
3	0	0	0	0	504	510	
4	0	0	0	0	504	511	
5	0	0	0	0	505	513	
6	0	0	0	0	505	511	
7	0	0	0	0	505	512	
8	0	0	0	0	505	513	
9	0	0	0	0	505	513	
10	0	0	0	0	505	515	
11	0	0	0	0	508	511	
12	0	0	0	0	504	512	
13	0	0	0	0	504	512	
14	0	0	0	0	505	511	
15	0	0	0	0	506	511	
0	0	0	0	0	505	510	
1	0	0	0	0	505	511	
2	0	0	0	0	505	512	
3	0	0	0	0	506	510	
4	0	0	0	0	504	511	
5	0	0	0	0	504	512	
6	0	0	0	0	506	513	
7	0	0	0	0	506	512	
8	0	0	0	0	504	511	
9	0	0	0	0	507	513	
10	0	0	0	0	506	512	
11	0	0	0	0	505	513	
12	0	0	0	0	508	512	
13	0	0	0	0	506	512	
14	0	0	0	0	504	512	
15	0	0	0	0	505	512	
0	0	0	0	0	505	513	
1	0	0	0	0	504	511	
2	0	0	0	0	506	509	
3	0	0	0	0	507	511	
4	0	0	0	0	507	513	
5	0	0	0	0	507	512	
6	0	0	0	0	505	512	
7	0	0	0	0	506	511	
8	0	0	0	0	507	511	
9	0	0	0	0	505	512	
10	0	0	0	0	507	514	
11	0	0	0	0	505	510	
12	0	0	0	0	505	511	
13	0	0	0	0	504	511	
14	0	0	0	0	504	512	
15	0	0	0	0	506	512	
0	0	0	0	0	505	512	
1	0	0	0	0	504	513	
2	0	0	0	0	507	514	
3	0	0	0	0	505	512	
4	0	0	0	0	505	512	
5	0	0	0	0	504	512	
6	0	0	0	0	505	512	
7	0	0	0	0	507	513	
8	0	0	0	0	507	511	
9	0	0	0	0	504	511	
10	0	0	0	0	506	512	
11	0	0	0	0	505	511	
12	0	0	0	0	504	512	
13	0	0	0	0	505	512	
14	0	0	0	0	504	512	
15	0	0	0	0	505	511	
0	0	0	0	0	504	511	
1	0	0	0	0	505	512	
2	0	0	0	0	506	512	
3	0	0	0	0	508	511	
4	0	0	0	0	506	512	
5	0	0	0	0	505	514	
6	0	0	0	0	505	513	
7	0	0	0	0	505	513	
8	0	0	0	0	505	513	
9	0	0	0	0	505	514	
10	0	0	0	0	504	511	
11	0	0	0	0	504	511	
12	0	0	0	0	506	512	
13	0	0	0	0	506	512	
14	0	0	0	0	505	512	
15	0	0	0	0	505	512	
0	0	0	0	0	504	512	
1	0	0	0	0	507	510	
2	0	0	0	0	507	511	
3	0	0	0	0	505	514	
4	0	0	0	0	504	513	
5	0	0	0	0	505	511	
6	0	0	0	0	505	511	
7	0	0	0	0	507	514	
8	0	0	0	0	507	511	
9	0	0	0	0	504	512	
10	0	0	0	0	505	513	
11	0	0	0	0	505	509	
12	0	0	0	0	503	511	
13	0	0	0	0	506	512	
14	0	0	0	0	508	511	
15	0	0	0	0	504	510	
0	0	0	0	0	507	511	
1	0	0	0	0	505	513	
2	0	0	0	0	505	513	
3	0	0	0	0	505	514	
4	0	0	0	0	505	512	
5	0	0	0	0	507	512	
6	0	0	0	0	505	512	
7	0	0	0	0	508	512	
8	0	0	0	0	504	509	
9	0	0	0	0	505	512	
10	0	0	0	0	505	511	
11	0	0	0	0	505	512	
12	0	0	0	0	504	513	
13	0	0	0	0	504	512	
14	0	0	0	0	507	512	
15	0	0	0	0	505	511	
0	0	0	0	0	506	511	
1	0	0	0	0	504	513	
2	0	0	0	0	505	515	
3	0	0	0	0	504	511	
4	0	0	0	0	505	512	
5	0	0	0	0	505	512	
6	0	0	0	0	505	511	
7	0	0	0	0	505	512	
8	0	0	0	0	507	513	
9	0	0	0	0	504	512	
10	0	0	0	0	502	510	
11	0	0	0	0	504	511	
12	0	0	0	0	506	511	
13	0	0	0	0	505	510	
14	0	0	0	0	506	512	
15	0	0	0	0	504	511	
0	0	0	0	0	505	511	
1	0	0	0	0	505	511	
2	0	0	0	0	505	512	
3	0	0	0	0	505	512	
4	0	0	0	0	506	513	
5	0	0	0	0	506	512	
6	0	0	0	0	504	512	
7	0	0	0	0	507	512	
8	0	0	0	0	505	512	
9	0	0	0	0	507	514	
10	0	0	0	0	507	513	
11	0	0	0	0	506	510	
12	0	0	0	0	505	511	
13	0	0	0	0	505	511	
14	0	0	0	0	505	511	
15	0	0	0	0	504	512	
0	0	0	0	0	505	514	
1	0	0	0	0	506	512	
2	0	0	0	0	505	512	
3	0	0	0	0	505	513	
4	0	0	0	0	504	511	
5	0	0	0	0	506	511	
6	0	0	0	0	504	510	
7	0	0	0	0	506	511	
8	0	0	0	0	506	512	
9	0	0	0	0	504	513	
10	0	0	0	0	505	512	
11	0	0	0	0	507	512	
12	0	0	0	0	504	511	
13	0	0	0	0	504	514	
14	0	0	0	0	506	512	
15	0	0	0	0	505	512	
0	0	0	0	0	504	512	
1	0	0	0	0	506	511	
2	0	0	0	0	507	512	
3	0	0	0	0	504	511	
4	0	0	0	0	503	513	
5	0	0	0	0	504	514	
6	0	0	0	0	504	513	
7	0	0	0	0	505	511	
8	0	0	0	0	505	508	
9	0	0	0	0	505	511	
10	0	0	0	0	507	512	
11	0	0	0	0	508	511	
12	0	0	0	0	506	512	
13	0	0	0	0	504	515	
14	0	0	0	0	505	512	
15	0	0	0	0	507	513	
0	0	0	0	0	506	514	
1	0	0	0	0	503	511	
2	0	0	0	0	505	514	
3	0	0	0	0	505	512	
4	0	0	0	0	507	513	
5	0	0	0	0	505	511	
6	0	0	0	0	506	512	
7	0	0	0	0	505	512	
8	0	0	0	0	505	511	
9	0	0	0	0	504	511	
10	0	0	0	0	504	511	
11	0	0	0	0	504	512	
12	0	0	0	0	505	511	
13	0	0	0	0	505	512	
14	0	0	0	0	505	513	
15	0	0	0	0	504	512	
0	0	0	0	0	507	511	
1	0	0	0	0	505	513	
2	0	0	0	0	507	514	
3	0	0	0	0	506	510	
4	0	0	0	0	505	512	
5	0	0	0	0	505	512	
6	0	0	0	0	507	511	
7	0	0	0	0	507	511	
8	0	0	0	0	505	513	
9	0	0	0	0	505	513	
10	0	0	0	0	508	512	
11	0	0	0	0	505	515	
12	0	0	0	0	507	510	
13	0	0	0	0	505	513	
14	0	0	0	0	504	512	
15	0	0	0	0	504	513	
0	0	0	0	0	505	510	
1	0	0	0	0	505	512	
2	0	0	0	0	506	510	
3	0	0	0	0	506	512	
4	0	0	0	0	505	514	
5	0	0	0	0	504	515	
6	0	0	0	0	506	511	
7	0	0	0	0	504	512	
8	0	0	0	0	505	511	
9	0	0	0	0	506	512	
10	0	0	0	0	508	512	
11	0	0	0	0	508	511	
12	0	0	0	0	507	512	
13	0	0	0	0	508	512	
14	0	0	0	0	506	513	
15	0	0	0	0	504	509	
0	0	0	0	0	503	510	
1	0	0	0	0	504	512	
2	0	0	0	0	504	510	
3	0	0	0	0	504	511	
4	0	0	0	0	506	513	
5	0	0	0	0	507	514	
6	0	0	0	0	504	512	
7	0	0	0	0	504	511	
8	0	0	0	0	506	510	
9	0	0	0	0	505	510	
10	0	0	0	0	507	510	
11	0	0	0	0	506	512	
12	0	0	0	0	505	514	
13	0	0	0	0	504	512	
14	0	0	0	0	505	512	
15	0	0	0	0	505	512	
0	0	0	0	0	506	511	
1	0	0	0	0	506	512	
2	0	0	0	0	505	513	
3	0	0	0	0	507	512	
4	0	0	0	0	505	510	
5	0	0	0	0	506	511	
6	0	0	0	0	505	512	
7	0	0	0	0	506	512	
8	0	0	0	0	505	513	
9	0	0	0	0	506	512	
10	0	0	0	0	506	511	
11	0	0	0	0	505	513	
12	0	0	0	0	508	512	
13	0	0	0	0	505	512	
14	0	0	0	0	504	510	
15	0	0	0	0	506	512	
0	0	0	0	0	507	512	
1	0	0	0	0	506	511	
2	0	0	0	0	506	512	
3	0	0	0	0	504	512	
4	0	0	0	0	505	512	
5	0	0	0	0	504	511	
6	0	0	0	0	505	512	
7	0	0	0	0	505	512	
8	0	0	0	0	506	513	
9	0	0	0	0	506	512	
10	0	0	0	0	505	512	
11	0	0	0	0	507	511	
12	0	0	0	0	507	510	
13	0	0	0	0	505	511	
14	0	0	0	0	506	510	
15	0	0	0	0	506	511	
0	0	0	0	0	503	512	
1	0	0	0	0	505	510	
2	0	0	0	0	506	510	
3	0	0	0	0	504	512	
4	0	0	0	0	503	513	
5	0	0	0	0	505	513	
6	0	0	0	0	506	513	
7	0	0	0	0	507	510	
8	0	0	0	0	505	510	
9	0	0	0	0	505	512	
10	0	0	0	0	505	511	
11	0	0	0	0	506	511	
12	0	0	0	0	507	512	
13	0	0	0	0	506	513	
14	0	0	0	0	504	512	
15	0	0	0	0	505	513	
0	0	0	0	0	505	513	
1	0	0	0	0	504	513	
2	0	0	0	0	504	509	
3	0	0	0	0	505	513	
4	0	0	0	0	507	512	
5	0	0	0	0	504	513	
6	0	0	0	0	506	512	
7	0	0	0	0	504	513	
8	0	0	0	0	507	512	
9	0	0	0	0	504	511	
10	0	0	0	0	504	511	
11	0	0	0	0	507	512	
12	0	0	0	0	504	509	
13	0	0	0	0	506	513	
14	0	0	0	0	505	513	
15	0	0	0	0	507	511	
0	0	0	0	0	505	512	
1	0	0	0	0	505	510	
2	0	0	0	0	505	513	
3	0	0	0	0	505	510	
4	0	0	0	0	505	512	
5	0	0	0	0	505	512	
6	0	0	0	0	505	512	
7	0	0	0	0	505	511	
8	0	0	0	0	506	511	
9	0	0	0	0	507	512	
10	0	0	0	0	508	511	
11	0	0	0	0	504	511	
12	0	0	0	0	506	512	
13	0	0	0	0	505	512	
14	0	0	0	0	505	511	
15	0	0	0	0	506	513	
0	0	0	0	0	505	514	
1	0	0	0	0	504	511	
2	0	0	0	0	504	511	
3	0	0	0	0	506	513	
4	0	0	0	0	504	510	
5	0	0	0	0	504	513	
6	0	0	0	0	504	513	
7	0	0	0	0	503	513	
8	0	0	0	0	505	511	
9	0	0	0	0	505	511	
10	0	0	0	0	506	512	
11	0	0	0	0	507	512	
12	0	0	0	0	507	513	
13	0	0	0	0	507	512	
14	0	0	0	0	505	511	
15	0	0	0	0	505	511	
0	0	0	0	0	506	511	
1	0	0	0	0	506	511	
2	0	0	0	0	504	515	
3	0	0	0	0	505	512	
4	0	0	0	0	508	513	
5	0	0	0	0	507	511	
6	0	0	0	0	506	513	
7	0	0	0	0	505	512	
8	0	0	0	0	504	512	
9	0	0	0	0	507	511	
10	0	0	0	0	505	510	
11	0	0	0	0	505	511	
12	0	0	0	0	505	513	
13	0	0	0	0	503	511	
14	0	0	0	0	506	513	
15	0	0	0	0	506	510	
0	0	0	0	0	505	512	
1	0	0	0	0	506	511	
2	0	0	0	0	505	510	
3	0	0	0	0	504	513	
4	0	0	0	0	506	512	
5	0	0	0	0	507	512	
6	0	0	0	0	507	513	
7	0	0	0	0	504	511	
8	0	0	0	0	505	513	
9	0	0	0	0	505	513	
10	0	0	0	0	505	512	
11	0	0	0	0	505	511	
12	0	0	0	0	505	511	
13	0	0	0	0	504	510	
14	0	0	0	0	505	513	
15	0	0	0	0	507	511	
0	0	0	0	0	505	511	
1	0	0	0	0	504	513	
2	0	0	0	0	505	512	
3	0	0	0	0	506	513	
4	0	0	0	0	505	510	
5	0	0	0	0	505	511	
6	0	0	0	0	505	513	
7	0	0	0	0	508	512	
8	0	0	0	0	504	511	
9	0	0	0	0	507	512	
10	0	0	0	0	505	509	
11	0	0	0	0	504	511	
12	0	0	0	0	508	513	
13	0	0	0	0	505	514	
14	0	0	0	0	506	511	
15	0	0	0	0	504	511	
0	0	0	0	0	504	511	
1	0	0	0	0	506	512	
2	0	0	0	0	504	512	
3	0	0	0	0	504	513	
4	0	0	0	0	504	512	
5	0	0	0	0	507	511	
6	0	0	0	0	505	513	
7	0	0	0	0	503	512	
8	0	0	0	0	504	512	
9	0	0	0	0	507	512	
10	0	0	0	0	505	511	
11	0	0	0	0	508	512	
12	0	0	0	0	505	513	
13	0	0	0	0	504	514	
14	0	0	0	0	504	512	
15	0	0	0	0	505	511	
0	0	0	0	0	505	512	
1	0	0	0	0	507	512	
2	0	0	0	0	504	512	
3	0	0	0	0	507	511	
4	0	0	0	0	505	510	
5	0	0	0	0	504	511	
6	0	0	0	0	506	512	
7	0	0	0	0	504	512	
8	0	0	0	0	506	511	
9	0	0	0	0	507	511	
10	0	0	0	0	507	511	
11	0	0	0	0	507	512	
12	0	0	0	0	506	512	
13	0	0	0	0	505	513	
14	0	0	0	0	505	511	
15	0	0	0	0	507	510	
0	0	0	0	0	504	512	
1	0	0	0	0	506	510	
2	0	0	0	0	505	513	
3	0	0	0	0	505	512	
4	0	0	0	0	504	512	
5	0	0	0	0	506	512	
6	0	0	0	0	505	513	
7	0	0	0	0	505	512	
8	0	0	0	0	504	511	
9	0	0	0	0	504	512	
10	0	0	0	0	506	511	
11	0	0	0	0	507	511	
12	0	0	0	0	504	511	
13	0	0	0	0	504	514	
14	0	0	0	0	507	511	
15	0	0	0	0	507	510	
0	0	0	0	0	506	510	
1	0	0	0	0	505	511	
2	0	0	0	0	504	511	
3	0	0	0	0	505	512	
4	0	0	0	0	504	512	
5	0	0	0	0	505	512	
6	0	0	0	0	507	514	
7	0	0	0	0	505	512	
8	0	0	0	0	505	512	
9	0	0	0	0	504	511	
10	0	0	0	0	506	512	
11	0	0	0	0	506	514	
12	0	0	0	0	506	511	
13	0	0	0	0	507	513	
14	0	0	0	0	505	512	
15	0	0	0	0	506	511	
0	0	0	0	0	507	512	
1	0	0	0	0	505	512	
2	0	0	0	0	504	512	
3	0	0	0	0	507	514	
4	0	0	0	0	507	513	
5	0	0	0	0	505	511	
6	0	0	0	0	506	511	
7	0	0	0	0	505	511	
8	0	0	0	0	505	511	
9	0	0	0	0	502	512	
10	0	0	0	0	506	511	
11	0	0	0	0	504	511	
12	0	0	0	0	505	512	
13	0	0	0	0	508	510	
14	0	0	0	0	508	515	
15	0	0	0	0	505	512	
0	0	0	0	0	505	511	
1	0	0	0	0	505	514	
2	0	0	0	0	504	512	
3	0	0	0	0	505	515	
4	0	0	0	0	505	512	
5	0	0	0	0	507	511	
6	0	0	0	0	507	511	
7	0	0	0	0	505	510	
8	0	0	0	0	505	513	
9	0	0	0	0	504	513	
10	0	0	0	0	505	510	
11	0	0	0	0	505	514	
12	0	0	0	0	507	511	
13	0	0	0	0	506	511	
14	0	0	0	0	504	511	
15	0	0	0	0	504	511	
0	0	0	0	0	507	510	
1	0	0	0	0	505	513	
2	0	0	0	0	504	513	
3	0	0	0	0	505	511	
4	0	0	0	0	504	510	
5	0	0	0	0	504	512	
6	0	0	0	0	507	511	
7	0	0	0	0	505	513	
8	0	0	0	0	504	513	
9	0	0	0	0	505	512	
10	0	0	0	0	505	512	
11	0	0	0	0	505	511	
12	0	0	0	0	505	511	
13	0	0	0	0	505	513	
14	0	0	0	0	505	510	
15	0	0	0	0	505	510	
0	0	0	0	0	507	512	
1	0	0	0	0	505	511	
2	0	0	0	0	505	512	
3	0	0	0	0	504	512	
4	0	0	0	0	505	512	
5	0	0	0	0	504	513	
6	0	0	0	0	502	510	
7	0	0	0	0	503	512	
8	0	0	0	0	505	511	
9	0	0	0	0	505	512	
10	0	0	0	0	506	512	
11	0	0	0	0	508	513	
12	0	0	0	0	504	514	
13	0	0	0	0	507	513	
14	0	0	0	0	508	511	
15	0	0	0	0	505	511	
0	0	0	0	0	507	511	
1	0	0	0	0	503	511	
2	0	0	0	0	505	512	
3	0	0	0	0	505	511	
4	0	0	0	0	507	512	
5	0	0	0	0	506	513	
6	0	0	0	0	506	511	
7	0	0	0	0	508	512	
8	0	0	0	0	506	512	
9	0	0	0	0	506	511	
10	0	0	0	0	505	511	
11	0	0	0	0	506	512	
12	0	0	0	0	504	511	
13	0	0	0	0	506	512	
14	0	0	0	0	504	512	
15	0	0	0	0	505	512	
0	0	0	0	0	505	512	
1	0	0	0	0	507	515	
2	0	0	0	0	505	515	
3	0	0	0	0	507	512	
4	0	0	0	0	506	511	
5	0	0	0	0	504	512	
6	0	0	0	0	506	510	
7	0	0	0	0	507	513	
8	0	0	0	0	505	511	
9	0	0	0	0	507	513	
10	0	0	0	0	505	511	
11	0	0	0	0	505	512	
12	0	0	0	0	505	511	
13	0	0	0	0	506	513	
14	0	0	0	0	504	511	
15	0	0	0	0	505	511	
0	0	0	0	0	507	512	
1	0	0	0	0	505	512	
2	0	0	0	0	505	512	
3	0	0	0	0	505	511	
4	0	0	0	0	504	510	
5	0	0	0	0	505	512	
6	0	0	0	0	507	512	
7	0	0	0	0	504	513	
8	0	0	0	0	504	513	
9	0	0	0	0	506	512	
10	0	0	0	0	505	513	
11	0	0	0	0	505	510	
12	0	0	0	0	505	514	
13	0	0	0	0	505	512	
14	0	0	0	0	505	512	
15	0	0	0	0	505	511	
0	0	0	0	0	505	512	
1	0	0	0	0	505	511	
2	0	0	0	0	505	512	
3	0	0	0	0	507	512	
4	0	0	0	0	507	512	
5	0	0	0	0	506	511	
6	0	0	0	0	505	510	
7	0	0	0	0	508	512	
8	0	0	0	0	505	511	
9	0	0	0	0	507	511	
10	0	0	0	0	507	511	
11	0	0	0	0	506	511	
12	0	0	0	0	505	512	
13	0	0	0	0	504	514	
14	0	0	0	0	505	511	
15	0	0	0	0	504	511	
0	0	0	0	0	504	512	
1	0	0	0	0	506	512	
2	0	0	0	0	505	514	
3	0	0	0	0	505	512	
4	0	0	0	0	506	512	
5	0	0	0	0	505	510	
6	0	0	0	0	505	511	
7	0	0	0	0	506	511	
8	0	0	0	0	507	511	
9	0	0	0	0	505	512	
10	0	0	0	0	504	511	
11	0	0	0	0	507	512	
12	0	0	0	0	506	512	
13	0	0	0	0	505	512	
14	0	0	0	0	506	511	
15	0	0	0	0	504	512	
0	0	0	0	0	506	511	
1	0	0	0	0	505	512	
2	0	0	0	0	505	513	
3	0	0	0	0	506	511	
4	0	0	0	0	506	512	
5	0	0	0	0	506	512	
6	0	0	0	0	507	510	
7	0	0	0	0	505	510	
8	0	0	0	0	505	510	
9	0	0	0	0	506	513	
10	0	0	0	0	505	514	
11	0	0	0	0	506	513	
12	0	0	0	0	505	511	
13	0	0	0	0	504	511	
14	0	0	0	0	504	512	
15	0	0	0	0	505	511	
0	0	0	0	0	504	512	
1	0	0	0	0	505	512	
2	0	0	0	0	505	511	
3	0	0	0	0	505	513	
4	0	0	0	0	505	510	
5	0	0	0	0	506	511	
6	0	0	0	0	508	512	
7	0	0	0	0	505	511	
8	0	0	0	0	507	513	
9	0	0	0	0	504	511	
10	0	0	0	0	504	511	
11	0	0	0	0	507	513	
12	0	0	0	0	507	513	
13	0	0	0	0	504	513	
14	0	0	0	0	504	512	
15	0	0	0	0	505	510	
0	0	0	0	0	506	511	
1	0	0	0	0	507	513	
2	0	0	0	0	507	513	
3	0	0	0	0	505	511	
4	0	0	0	0	505	512	
5	0	0	0	0	507	512	
6	0	0	0	0	505	515	
7	0	0	0	0	505	512	
8	0	0	0	0	509	512	
9	0	0	0	0	504	512	
10	0	0	0	0	504	511	
11	0	0	0	0	505	511	
12	0	0	0	0	507	511	
13	0	0	0	0	505	513	
14	0	0	0	0	506	513	
15	0	0	0	0	503	510	
0	0	0	0	0	505	512	
1	0	0	0	0	504	512	
2	0	0	0	0	506	511	
3	0	0	0	0	504	512	
4	0	0	0	0	505	510	
5	0	0	0	0	508	513	
6	0	0	0	0	505	513	
7	0	0	0	0	505	512	
8	0	0	0	0	507	512	
9	0	0	0	0	505	512	
10	0	0	0	0	505	511	
11	0	0	0	0	505	510	
12	0	0	0	0	507	511	
13	0	0	0	0	505	510	
14	0	0	0	0	505	510	
15	0	0	0	0	507	510	
0	0	0	0	0	505	512	
1	0	0	0	0	504	512	
2	0	0	0	0	505	512	
3	0	0	0	0	508	513	
4	0	0	0	0	504	512	
5	0	0	0	0	503	513	
6	0	0	0	0	504	512	
7	0	0	0	0	505	511	
8	0	0	0	0	505	513	
9	0	0	0	0	507	511	
10	0	0	0	0	507	510	
11	0	0	0	0	505	511	
12	0	0	0	0	505	511	
13	0	0	0	0	507	511	
14	0	0	0	0	505	511	
15	0	0	0	0	505	511	
0	0	0	0	0	507	513	
1	0	0	0	0	505	513	
2	0	0	0	0	504	511	
3	0	0	0	0	505	511	
4	0	0	0	0	507	510	
5	0	0	0	0	505	511	
6	0	0	0	0	505	512	
7	0	0	0	0	504	511	
8	0	0	0	0	505	511	
9	0	0	0	0	506	511	
10	0	0	0	0	506	511	
11	0	0	0	0	505	511	
12	0	0	0	0	505	514	
13	0	0	0	0	504	512	
14	0	0	0	0	506	513	
15	0	0	0	0	508	512	
0	0	0	0	0	506	512	
1	0	0	0	0	505	512	
2	0	0	0	0	506	513	
3	0	0	0	0	506	513	
4	0	0	0	0	505	512	
5	0	0	0	0	504	512	
6	0	0	0	0	508	511	
7	0	0	0	0	504	510	
8	0	0	0	0	504	511	
9	0	0	0	0	504	510	
10	0	0	0	0	505	513	
11	0	0	0	0	506	513	
12	0	0	0	0	505	512	
13	0	0	0	0	506	511	
14	0	0	0	0	508	512	
15	0	0	0	0	504	510	
0	0	0	0	0	504	512	
1	0	0	0	0	504	512	
2	0	0	0	0	504	512	
3	0	0	0	0	505	513	
4	0	0	0	0	505	512	
5	0	0	0	0	506	511	
6	0	0	0	0	508	512	
7	0	0	0	0	505	512	
8	0	0	0	0	504	513	
9	0	0	0	0	505	513	
10	0	0	0	0	505	511	
11	0	0	0	0	505	511	
12	0	0	0	0	506	511	
13	0	0	0	0	505	512	
14	0	0	0	0	505	513	
15	0	0	0	0	504	510	
0	0	0	0	0	506	509	
1	0	0	0	0	504	510	
2	0	0	0	0	507	511	
3	0	0	0	0	506	513	
4	0	0	0	0	506	511	
5	0	0	0	0	505	510	
6	0	0	0	0	505	513	
7	0	0	0	0	507	510	
8	0	0	0	0	505	511	
9	0	0	0	0	505	511	
10	0	0	0	0	507	511	
11	0	0	0	0	507	509	
12	0	0	0	0	505	514	
13	0	0	0	0	505	511	
14	0	0	0	0	504	513	
15	0	0	0	0	503	512	
0	0	0	0	0	504	511	
1	0	0	0	0	507	510	
2	0	0	0	0	505	511	
3	0	0	0	0	504	511	
4	0	0	0	0	504	513	
5	0	0	0	0	505	515	
6	0	0	0	0	507	511	
7	0	0	0	0	504	510	
8	0	0	0	0	506	510	
9	0	0	0	0	507	513	
10	0	0	0	0	507	511	
11	0	0	0	0	505	513	
12	0	0	0	0	505	510	
13	0	0	0	0	505	512	
14	0	0	0	0	505	512	
15	0	0	0	0	507	513	
0	0	0	0	0	505	511	
1	0	0	0	0	506	512	
2	0	0	0	0	506	512	
3	0	0	0	0	504	513	
4	0	0	0	0	504	510	
5	0	0	0	0	506	513	
6	0	0	0	0	506	512	
7	0	0	0	0	504	511	
8	0	0	0	0	505	513	
9	0	0	0	0	507	511	
10	0	0	0	0	506	511	
11	0	0	0	0	504	511	
12	0	0	0	0	504	510	
13	0	0	0	0	505	512	
14	0	0	0	0	507	513	
15	0	0	0	0	505	511	
0	0	0	0	0	506	510	
1	0	0	0	0	506	512	
2	0	0	0	0	504	512	
3	0	0	0	0	507	512	
4	0	0	0	0	507	512	
5	0	0	0	0	505	514	
6	0	0	0	0	503	511	
7	0	0	0	0	504	513	
8	0	0	0	0	504	513	
9	0	0	0	0	505	514	
10	0	0	0	0	506	514	
11	0	0	0	0	507	514	
12	0	0	0	0	504	510	
13	0	0	0	0	505	510	
14	0	0	0	0	505	511	
15	0	0	0	0	506	511	
0	0	0	0	0	507	511	
1	0	0	0	0	507	512	
2	0	0	0	0	506	513	
3	0	0	0	0	505	513	
4	0	0	0	0	505	512	
5	0	0	0	0	505	512	
6	0	0	0	0	505	512	
7	0	0	0	0	506	511	
8	0	0	0	0	505	511	
9	0	0	0	0	506	511	
10	0	0	0	0	504	511	
11	0	0	0	0	507	512	
12	0	0	0	0	506	513	
13	0	0	0	0	507	510	
14	0	0	0	0	506	514	
15	0	0	0	0	505	512	
0	0	0	0	0	504	510	
1	0	0	0	0	506	512	
2	0	0	0	0	507	510	
3	0	0	0	0	506	512	
4	0	0	0	0	504	512	
5	0	0	0	0	504	512	
6	0	0	0	0	505	512	
7	0	0	0	0	505	510	
8	0	0	0	0	505	512	
9	0	0	0	0	506	511	
10	0	0	0	0	507	511	
11	0	0	0	0	505	511	
12	0	0	0	0	507	512	
13	0	0	0	0	504	511	
14	0	0	0	0	505	510	
15	0	0	0	0	506	512	
0	0	0	0	0	507	513	
1	0	0	0	0	507	510	
2	0	0	0	0	504	510	
3	0	0	0	0	505	511	
4	0	0	0	0	505	512	
5	0	0	0	0	505	513	
6	0	0	0	0	505	513	
7	0	0	0	0	507	513	
8	0	0	0	0	504	513	
9	0	0	0	0	505	513	
10	0	0	0	0	505	512	
11	0	0	0	0	505	511	
12	0	0	0	0	507	512	
13	0	0	0	0	504	511	
14	0	0	0	0	505	512	
15	0	0	0	0	505	511	
0	0	0	0	0	507	510	
1	0	0	0	0	505	510	
2	0	0	0	0	505	513	
3	0	0	0	0	504	512	
4	0	0	0	0	505	512	
5	0	0	0	0	507	511	
6	0	0	0	0	505	511	
7	0	0	0	0	507	513	
8	0	0	0	0	507	512	
9	0	0	0	0	507	513	
10	0	0	0	0	507	513	
11	0	0	0	0	505	511	
12	0	0	0	0	505	513	
13	0	0	0	0	505	511	
14	0	0	0	0	506	510	
15	0	0	0	0	507	513	
0	0	0	0	0	504	511	
1	0	0	0	0	505	512	
2	0	0	0	0	505	511	
3	0	0	0	0	505	513	
4	0	0	0	0	505	512	
5	0	0	0	0	508	511	
6	0	0	0	0	505	510	
7	0	0	0	0	505	510	
8	0	0	0	0	506	511	
9	0	0	0	0	505	511	
10	0	0	0	0	508	513	
11	0	0	0	0	507	511	
12	0	0	0	0	506	512	
13	0	0	0	0	506	512	
14	0	0	0	0	506	513	
15	0	0	0	0	505	512	
0	0	0	0	0	504	512	
1	0	0	0	0	504	510	
2	0	0	0	0	504	512	
3	0	0	0	0	504	513	
4	0	0	0	0	505	511	
5	0	0	0	0	504	512	
6	0	0	0	0	506	512	
7	0	0	0	0	505	514	
8	0	0	0	0	506	512	
9	0	0	0	0	504	512	
10	0	0	0	0	505	512	
11	0	0	0	0	508	512	
12	0	0	0	0	505	511	
13	0	0	0	0	507	512	
14	0	0	0	0	505	511	
15	0	0	0	0	504	511	
0	0	0	0	0	505	510	
1	0	0	0	0	506	512	
2	0	0	0	0	504	511	
3	0	0	0	0	505	513	
4	0	0	0	0	505	511	
5	0	0	0	0	505	509	
6	0	0	0	0	506	510	
7	0	0	0	0	506	512	
8	0	0	0	0	505	513	
9	0	0	0	0	504	513	
10	0	0	0	0	504	513	
11	0	0	0	0	505	512	
12	0	0	0	0	505	513	
13	0	0	0	0	505	513	
14	0	0	0	0	506	515	
15	0	0	0	0	507	511	
0	0	0	0	0	507	512	
1	0	0	0	0	505	512	
2	0	0	0	0	505	512	
3	0	0	0	0	504	511	
4	0	0	0	0	505	512	
5	0	0	0	0	505	512	
6	0	0	0	0	507	513	
7	0	0	0	0	507	513	
8	0	0	0	0	505	510	
9	0	0	0	0	505	511	
10	0	0	0	0	505	511	
11	0	0	0	0	505	514	
12	0	0	0	0	507	511	
13	0	0	0	0	507	511	
14	0	0	0	0	505	511	
15	0	0	0	0	504	509	
0	0	0	0	0	504	513	
1	0	0	0	0	508	513	
2	0	0	0	0	504	511	
3	0	0	0	0	504	511	
4	0	0	0	0	504	511	
5	0	0	0	0	505	511	
6	0	0	0	0	508	511	
7	0	0	0	0	507	512	
8	0	0	0	0	507	512	
9	0	0	0	0	505	511	
10	0	0	0	0	506	511	
11	0	0	0	0	507	512	
12	0	0	0	0	504	512	
13	0	0	0	0	505	511	
14	0	0	0	0	504	512	
15	0	0	0	0	506	514	
0	0	0	0	0	506	513	
1	0	0	0	0	507	511	
2	0	0	0	0	505	512	
3	0	0	0	0	504	512	
4	0	0	0	0	505	512	
5	0	0	0	0	505	510	
6	0	0	0	0	505	511	
7	0	0	0	0	504	511	
8	0	0	0	0	506	512	
9	0	0	0	0	506	513	
10	0	0	0	0	506	513	
11	0	0	0	0	507	513	
12	0	0	0	0	505	512	
13	0	0	0	0	505	512	
14	0	0	0	0	503	512	
15	0	0	0	0	504	513	
0	0	0	0	0	508	514	
1	0	0	0	0	507	511	
2	0	0	0	0	504	511	
3	0	0	0	0	504	510	
4	0	0	0	0	505	512	
5	0	0	0	0	505	512	
6	0	0	0	0	505	511	
7	0	0	0	0	505	511	
8	0	0	0	0	505	512	
9	0	0	0	0	507	512	
10	0	0	0	0	505	512	
11	0	0	0	0	505	510	
12	0	0	0	0	508	513	
13	0	0	0	0	508	512	
14	0	0	0	0	508	511	
15	0	0	0	0	505	512	
0	0	0	0	0	505	513	
1	0	0	0	0	506	512	
2	0	0	0	0	507	511	
3	0	0	0	0	506	511	
4	0	0	0	0	507	510	
5	0	0	0	0	506	512	
6	0	0	0	0	504	511	
7	0	0	0	0	504	513	
8	0	0	0	0	506	511	
9	0	0	0	0	506	511	
10	0	0	0	0	506	513	
11	0	0	0	0	503	512	
12	0	0	0	0	507	513	
13	0	0	0	0	505	513	
14	0	0	0	0	507	511	
15	0	0	0	0	504	513	
0	0	0	0	0	506	513	
1	0	0	0	0	505	513	
2	0	0	0	0	504	512	
3	0	0	0	0	507	511	
4	0	0	0	0	506	509	
5	0	0	0	0	504	512	
6	0	0	0	0	508	510	
7	0	0	0	0	507	513	
8	0	0	0	0	505	513	
9	0	0	0	0	505	511	
10	0	0	0	0	504	512	
11	0	0	0	0	506	512	
12	0	0	0	0	506	510	
13	0	0	0	0	505	511	
14	0	0	0	0	505	511	
15	0	0	0	0	505	512	
0	0	0	0	0	505	513	
1	0	0	0	0	504	512	
2	0	0	0	0	505	512	
3	0	0	0	0	505	515	
4	0	0	0	0	505	512	
5	0	0	0	0	505	510	
6	0	0	0	0	505	513	
7	0	0	0	0	507	512	
8	0	0	0	0	506	513	
9	0	0	0	0	506	511	
10	0	0	0	0	505	510	
11	0	0	0	0	506	512	
12	0	0	0	0	507	511	
13	0	0	0	0	505	512	
14	0	0	0	0	505	513	
15	0	0	0	0	505	512	
0	0	0	0	0	505	512	
1	0	0	0	0	506	513	
2	0	0	0	0	506	513	
3	0	0	0	0	506	511	
4	0	0	0	0	506	512	
5	0	0	0	0	506	510	
6	0	0	0	0	505	512	
7	0	0	0	0	505	511	
8	0	0	0	0	505	512	
9	0	0	0	0	504	513	
10	0	0	0	0	507	514	
11	0	0	0	0	504	511	
12	0	0	0	0	505	512	
13	0	0	0	0	505	512	
14	0	0	0	0	506	512	
15	0	0	0	0	506	512	
0	0	0	0	0	506	513	
1	0	0	0	0	505	513	
2	0	0	0	0	505	512	
3	0	0	0	0	505	511	
4	0	0	0	0	505	510	
5	0	0	0	0	506	511	
6	0	0	0	0	504	513	
7	0	0	0	0	504	512	
8	0	0	0	0	504	512	
9	0	0	0	0	505	512	
10	0	0	0	0	506	511	
11	0	0	0	0	504	513	
12	0	0	0	0	506	514	
13	0	0	0	0	505	511	
14	0	0	0	0	508	511	
15	0	0	0	0	505	512	
0	0	0	0	0	504	510	
1	0	0	0	0	505	512	
2	0	0	0	0	507	513	
3	0	0	0	0	506	511	
4	0	0	0	0	504	512	
5	0	0	0	0	503	512	
6	0	0	0	0	505	512	
7	0	0	0	0	506	510	
8	0	0	0	0	505	512	
9	0	0	0	0	506	511	
10	0	0	0	0	505	513	
11	0	0	0	0	507	512	
12	0	0	0	0	504	512	
13	0	0	0	0	506	511	
14	0	0	0	0	505	513	
15	0	0	0	0	505	511	
0	0	0	0	0	506	511	
1	0	0	0	0	506	511	
2	0	0	0	0	506	513	
3	0	0	0	0	505	511	
4	0	0	0	0	504	513	
5	0	0	0	0	506	512	
6	0	0	0	0	506	511	
7	0	0	0	0	505	511	
8	0	0	0	0	506	511	
9	0	0	0	0	506	511	
10	0	0	0	0	505	513	
11	0	0	0	0	504	511	
12	0	0	0	0	505	511	
13	0	0	0	0	505	511	
14	0	0	0	0	504	511	
15	0	0	0	0	505	513	
0	0	0	0	0	504	513	
1	0	0	0	0	504	512	
2	0	0	0	0	504	513	
3	0	0	0	0	506	510	
4	0	0	0	0	504	512	
5	0	0	0	0	504	511	
6	0	0	0	0	505	512	
7	0	0	0	0	506	510	
8	0	0	0	0	507	512	
9	0	0	0	0	505	512	
10	0	0	0	0	507	511	
11	0	0	0	0	505	512	
12	0	0	0	0	506	512	
13	0	0	0	0	505	512	
14	0	0	0	0	505	512	
15	0	0	0	0	504	512	
0	0	0	0	0	505	512	
1	0	0	0	0	505	511	
2	0	0	0	0	505	512	
3	0	0	0	0	504	512	
4	0	0	0	0	504	512	
5	0	0	0	0	506	512	
6	0	0	0	0	505	512	
7	0	0	0	0	506	514	
8	0	0	0	0	505	512	
9	0	0	0	0	506	513	
10	0	0	0	0	504	512	
11	0	0	0	0	504	509	
12	0	0	0	0	505	510	
13	0	0	0	0	506	512	
14	0	0	0	0	505	511	
15	0	0	0	0	505	513	
0	0	0	0	0	508	512	
1	0	0	0	0	506	511	
2	0	0	0	0	505	512	
3	0	0	0	0	505	512	
4	0	0	0	0	507	512	
5	0	0	0	0	506	512	
6	0	0	0	0	506	511	
7	0	0	0	0	504	510	
8	0	0	0	0	504	512	
9	0	0	0	0	506	510	
10	0	0	0	0	507	512	
11	0	0	0	0	507	512	
12	0	0	0	0	504	511	
13	0	0	0	0	506	513	
14	0	0	0	0	505	512	
15	0	0	0	0	505	512	
0	0	0	0	0	506	512	
1	0	0	0	0	506	511	
2	0	0	0	0	504	512	
3	0	0	0	0	506	513	
4	0	0	0	0	505	512	
5	0	0	0	0	506	510	
6	0	0	0	0	504	511	
7	0	0	0	0	505	513	
8	0	0	0	0	505	511	
9	0	0	0	0	504	511	
10	0	0	0	0	505	512	
11	0	0	0	0	506	514	
12	0	0	0	0	506	512	
13	0	0	0	0	507	510	
14	0	0	0	0	507	513	
15	0	0	0	0	505	512	
0	0	0	0	0	507	511	
1	0	0	0	0	508	511	
2	0	0	0	0	507	512	
3	0	0	0	0	505	510	
4	0	0	0	0	504	512	
5	0	0	0	0	505	513	
6	0	0	0	0	506	512	
7	0	0	0	0	504	513	
8	0	0	0	0	508	513	
9	0	0	0	0	505	512	
10	0	0	0	0	504	511	
11	0	0	0	0	504	512	
12	0	0	0	0	507	511	
13	0	0	0	0	505	511	
14	0	0	0	0	504	511	
15	0	0	0	0	504	510	
0	0	0	0	0	505	512	
1	0	0	0	0	505	510	
2	0	0	0	0	508	512	
3	0	0	0	0	504	512	
4	0	0	0	0	506	512	
5	0	0	0	0	505	512	
6	0	0	0	0	505	512	
7	0	0	0	0	505	513	
8	0	0	0	0	504	512	
9	0	0	0	0	504	511	
10	0	0	0	0	505	511	
11	0	0	0	0	504	512	
12	0	0	0	0	504	511	
13	0	0	0	0	506	513	
14	0	0	0	0	505	513	
15	0	0	0	0	507	512	
0	0	0	0	0	507	512	
1	0	0	0	0	507	512	
2	0	0	0	0	504	511	
3	0	0	0	0	505	512	
4	0	0	0	0	503	510	
5	0	0	0	0	507	511	
6	0	0	0	0	504	510	
7	0	0	0	0	503	512	
8	0	0	0	0	505	513	
9	0	0	0	0	506	511	
10	0	0	0	0	507	512	
11	0	0	0	0	504	510	
12	0	0	0	0	506	513	
13	0	0	0	0	506	511	
14	0	0	0	0	507	512	
15	0	0	0	0	507	513	
0	0	0	0	0	506	512	
1	0	0	0	0	506	511	
2	0	0	0	0	506	512	
3	0	0	0	0	504	511	
4	0	0	0	0	505	512	
5	0	0	0	0	505	511	
6	0	0	0	0	507	510	
7	0	0	0	0	506	512	
8	0	0	0	0	504	511	
9	0	0	0	0	507	512	
10	0	0	0	0	505	513	
11	0	0	0	0	503	513	
12	0	0	0	0	506	511	
13	0	0	0	0	507	513	
14	0	0	0	0	504	512	
15	0	0	0	0	505	511	
0	0	0	0	0	506	512	
1	0	0	0	0	504	513	
2	0	0	0	0	505	512	
3	0	0	0	0	504	511	
4	0	0	0	0	503	512	
5	0	0	0	0	507	513	
6	0	0	0	0	506	512	
7	0	0	0	0	504	511	
8	0	0	0	0	506	512	
9	0	0	0	0	506	511	
10	0	0	0	0	506	511	
11	0	0	0	0	506	511	
12	0	0	0	0	505	514	
13	0	0	0	0	504	513	
14	0	0	0	0	506	511	
15	0	0	0	0	506	512	
0	0	0	0	0	506	511	
1	0	0	0	0	505	509	
2	0	0	0	0	504	511	
3	0	0	0	0	504	511	
4	0	0	0	0	504	511	
5	0	0	0	0	505	515	
6	0	0	0	0	506	512	
7	0	0	0	0	506	513	
8	0	0	0	0	507	514	
9	0	0	0	0	505	512	
10	0	0	0	0	507	512	
11	0	0	0	0	506	513	
12	0	0	0	0	507	510	
13	0	0	0	0	505	509	
14	0	0	0	0	507	511	
15	0	0	0	0	505	514	
0	0	0	0	0	504	512	
1	0	0	0	0	504	512	
2	0	0	0	0	504	511	
3	0	0	0	0	504	513	
4	0	0	0	0	506	511	
5	0	0	0	0	505	510	
6	0	0	0	0	505	512	
7	0	0	0	0	504	511	
8	0	0	0	0	505	511	
9	0	0	0	0	507	513	
10	0	0	0	0	505	511	
11	0	0	0	0	505	511	
12	0	0	0	0	508	511	
13	0	0	0	0	505	511	
14	0	0	0	0	504	512	
15	0	0	0	0	506	512	
0	0	0	0	0	508	513	
1	0	0	0	0	505	511	
2	0	0	0	0	505	512	
3	0	0	0	0	504	510	
4	0	0	0	0	505	511	
5	0	0	0	0	506	513	
6	0	0	0	0	504	513	
7	0	0	0	0	505	514	
8	0	0	0	0	505	512	
9	0	0	0	0	507	511	
10	0	0	0	0	506	512	
11	0	0	0	0	504	511	
12	0	0	0	0	504	511	
13	0	0	0	0	505	510	
14	0	0	0	0	505	512	
15	0	0	0	0	505	511	
0	0	0	0	0	506	509	
1	0	0	0	0	506	513	
2	0	0	0	0	504	514	
3	0	0	0	0	504	513	
4	0	0	0	0	503	513	
5	0	0	0	0	506	513	
6	0	0	0	0	505	512	
7	0	0	0	0	505	512	
8	0	0	0	0	505	512	
9	0	0	0	0	505	511	
10	0	0	0	0	504	512	
11	0	0	0	0	506	512	
12	0	0	0	0	505	511	
13	0	0	0	0	505	512	
14	0	0	0	0	504	512	
15	0	0	0	0	507	512	
0	0	0	0	0	508	511	
1	0	0	0	0	505	510	
2	0	0	0	0	506	512	
3	0	0	0	0	505	511	
4	0	0	0	0	506	512	
5	0	0	0	0	507	511	
6	0	0	0	0	505	514	
7	0	0	0	0	508	514	
8	0	0	0	0	505	513	
9	0	0	0	0	505	511	
10	0	0	0	0	504	511	
11	0	0	0	0	504	512	
12	0	0	0	0	506	512	
13	0	0	0	0	503	511	
14	0	0	0	0	503	512	
15	0	0	0	0	506	512	
0	0	0	0	0	505	513	
1	0	0	0	0	506	512	
2	0	0	0	0	506	513	
3	0	0	0	0	506	511	
4	0	0	0	0	507	512	
5	0	0	0	0	507	511	
6	0	0	0	0	503	511	
7	0	0	0	0	506	512	
8	0	0	0	0	506	511	
9	0	0	0	0	505	511	
10	0	0	0	0	505	512	
11	0	0	0	0	506	513	
12	0	0	0	0	505	511	
13	0	0	0	0	505	512	
14	0	0	0	0	506	511	
15	0	0	0	0	507	512	
0	0	0	0	0	507	513	
1	0	0	0	0	505	513	
2	0	0	0	0	506	512	
3	0	0	0	0	504	512	
4	0	0	0	0	506	509	
5	0	0	0	0	505	512	
6	0	0	0	0	505	511	
7	0	0	0	0	504	512	
8	0	0	0	0	504	512	
9	0	0	0	0	504	512	
10	0	0	0	0	505	515	
11	0	0	0	0	507	512	
12	0	0	0	0	507	511	
13	0	0	0	0	506	510	
14	0	0	0	0	507	510	
15	0	0	0	0	505	511	
0	0	0	0	0	504	511	
1	0	0	0	0	504	511	
2	0	0	0	0	505	511	
3	0	0	0	0	505	511	
4	0	0	0	0	506	511	
5	0	0	0	0	504	512	
6	0	0	0	0	505	511	
7	0	0	0	0	505	511	
8	0	0	0	0	504	512	
9	0	0	0	0	505	512	
10	0	0	0	0	508	511	
11	0	0	0	0	509	512	
12	0	0	0	0	505	512	
13	0	0	0	0	507	511	
14	0	0	0	0	505	513	
15	0	0	0	0	504	512	
0	0	0	0	0	506	511	
1	0	0	0	0	503	512	
2	0	0	0	0	504	513	
3	0	0	0	0	505	511	
4	0	0	0	0	505	513	
5	0	0	0	0	504	511	
6	0	0	0	0	504	513	
7	0	0	0	0	507	513	
8	0	0	0	0	504	513	
9	0	0	0	0	506	513	
10	0	0	0	0	505	510	
11	0	0	0	0	504	511	
12	0	0	0	0	507	511	
13	0	0	0	0	504	511	
14	0	0	0	0	505	512	
15	0	0	0	0	507	511	
0	0	0	0	0	505	511	
1	0	0	0	0	506	513	
2	0	0	0	0	504	513	
3	0	0	0	0	504	511	
4	0	0	0	0	504	511	
5	0	0	0	0	505	511	
6	0	0	0	0	505	514	
7	0	0	0	0	505	512	
8	0	0	0	0	506	512	
9	0	0	0	0	507	511	
10	0	0	0	0	505	512	
11	0	0	0	0	505	512	
12	0	0	0	0	505	512	
13	0	0	0	0	504	512	
14	0	0	0	0	505	511	
15	0	0	0	0	504	511	
0	0	0	0	0	506	511	
1	0	0	0	0	508	512	
2	0	0	0	0	507	511	
3	0	0	0	0	507	512	
4	0	0	0	0	504	512	
5	0	0	0	0	507	512	
6	0	0	0	0	504	512	
7	0	0	0	0	504	512	
8	0	0	0	0	506	512	
9	0	0	0	0	507	511	
10	0	0	0	0	505	510	
11	0	0	0	0	505	513	
12	0	0	0	0	505	512	
13	0	0	0	0	507	513	
14	0	0	0	0	506	511	
15	0	0	0	0	505	513	
0	0	0	0	0	504	513	
1	0	0	0	0	505	512	
2	0	0	0	0	507	512	
3	0	0	0	0	505	512	
4	0	0	0	0	505	512	
5	0	0	0	0	506	512	
6	0	0	0	0	504	513	
7	0	0	0	0	506	513	
8	0	0	0	0	505	512	
9	0	0	0	0	505	511	
10	0	0	0	0	505	511	
11	0	0	0	0	504	513	
12	0	0	0	0	505	513	
13	0	0	0	0	507	512	
14	0	0	0	0	504	513	
15	0	0	0	0	506	512	
0	0	0	0	0	506	510	
1	0	0	0	0	508	510	
2	0	0	0	0	505	513	
3	0	0	0	0	504	511	
4	0	0	0	0	505	513	
5	0	0	0	0	505	512	
6	0	0	0	0	505	510	
7	0	0	0	0	504	511	
8	0	0	0	0	506	509	
9	0	0	0	0	506	512	
10	0	0	0	0	504	514	
11	0	0	0	0	505	513	
12	0	0	0	0	507	512	
13	0	0	0	0	505	512	
14	0	0	0	0	507	511	
15	0	0	0	0	505	510	
0	0	0	0	0	504	512	
1	0	0	0	0	505	513	
2	0	0	0	0	506	512	
3	0	0	0	0	505	512	
4	0	0	0	0	505	512	
5	0	0	0	0	507	512	
6	0	0	0	0	506	514	
7	0	0	0	0	505	512	
8	0	0	0	0	504	511	
9	0	0	0	0	505	512	
10	0	0	0	0	505	512	
11	0	0	0	0	505	513	
12	0	0	0	0	505	512	
13	0	0	0	0	506	511	
14	0	0	0	0	505	512	
15	0	0	0	0	503	510	
0	0	0	0	0	507	510	
1	0	0	0	0	507	511	
2	0	0	0	0	506	513	
3	0	0	0	0	504	511	
4	0	0	0	0	505	512	
5	0	0	0	0	505	511	
6	0	0	0	0	507	512	
7	0	0	0	0	504	511	
8	0	0	0	0	507	514	
9	0	0	0	0	507	512	
10	0	0	0	0	504	512	
11	0	0	0	0	505	512	
12	0	0	0	0	505	514	
13	0	0	0	0	504	511	
14	0	0	0	0	505	511	
15	0	0	0	0	505	511	
0	0	0	0	0	505	512	
1	0	0	0	0	505	513	
2	0	0	0	0	507	512	
3	0	0	0	0	506	513	
4	0	0	0	0	504	512	
5	0	0	0	0	504	513	
6	0	0	0	0	505	510	
7	0	0	0	0	506	512	
8	0	0	0	0	504	513	
9	0	0	0	0	504	511	
10	0	0	0	0	504	513	
11	0	0	0	0	506	512	
12	0	0	0	0	507	512	
13	0	0	0	0	505	509	
14	0	0	0	0	506	512	
15	0	0	0	0	505	510	
0	0	0	0	0	506	510	
1	0	0	0	0	505	511	
2	0	0	0	0	505	512	
3	0	0	0	0	507	512	
4	0	0	0	0	507	510	
5	0	0	0	0	505	510	
6	0	0	0	0	504	512	
7	0	0	0	0	507	513	
8	0	0	0	0	507	515	
9	0	0	0	0	503	513	
10	0	0	0	0	506	511	
11	0	0	0	0	506	511	
12	0	0	0	0	506	510	
13	0	0	0	0	506	510	
14	0	0	0	0	505	511	
15	0	0	0	0	505	512	
0	0	0	0	0	506	511	
1	0	0	0	0	503	512	
2	0	0	0	0	504	512	
3	0	0	0	0	505	511	
4	0	0	0	0	505	514	
5	0	0	0	0	505	513	
6	0	0	0	0	507	511	
7	0	0	0	0	507	512	
8	0	0	0	0	504	512	
9	0	0	0	0	505	512	
10	0	0	0	0	504	513	
11	0	0	0	0	505	511	
12	0	0	0	0	504	512	
13	0	0	0	0	505	511	
14	0	0	0	0	505	512	
15	0	0	0	0	507	512	
0	0	0	0	0	507	513	
1	0	0	0	0	505	511	
2	0	0	0	0	506	512	
3	0	0	0	0	504	511	
4	0	0	0	0	505	512	
5	0	0	0	0	504	512	
6	0	0	0	0	505	512	
7	0	0	0	0	505	512	
8	0	0	0	0	507	511	
9	0	0	0	0	508	513	
10	0	0	0	0	506	513	
11	0	0	0	0	505	511	
12	0	0	0	0	505	510	
13	0	0	0	0	507	512	
14	0	0	0	0	506	511	
15	0	0	0	0	504	511	
0	0	0	0	0	508	512	
1	0	0	0	0	507	512	
2	0	0	0	0	504	511	
3	0	0	0	0	505	512	
4	0	0	0	0	507	511	
5	0	0	0	0	504	512	
6	0	0	0	0	505	513	
7	0	0	0	0	507	512	
8	0	0	0	0	507	511	
9	0	0	0	0	505	513	
10	0	0	0	0	505	512	
11	0	0	0	0	504	513	
12	0	0	0	0	505	514	
13	0	0	0	0	504	513	
14	0	0	0	0	507	510	
15	0	0	0	0	506	512	
0	0	0	0	0	507	512	
1	0	0	0	0	504	512	
2	0	0	0	0	506	509	
3	0	0	0	0	506	510	
4	0	0	0	0	506	512	
5	0	0	0	0	506	510	
6	0	0	0	0	504	511	
7	0	0	0	0	505	512	
8	0	0	0	0	507	510	
9	0	0	0	0	504	511	
10	0	0	0	0	505	510	
11	0	0	0	0	507	511	
12	0	0	0	0	505	513	
13	0	0	0	0	504	512	
14	0	0	0	0	504	511	
15	0	0	0	0	508	513	
0	0	0	0	0	507	512	
1	0	0	0	0	505	513	
2	0	0	0	0	504	513	
3	0	0	0	0	504	512	
4	0	0	0	0	505	514	
5	0	0	0	0	506	513	
6	0	0	0	0	505	512	
7	0	0	0	0	504	512	
8	0	0	0	0	505	512	
9	0	0	0	0	506	513	
10	0	0	0	0	505	512	
11	0	0	0	0	505	511	
12	0	0	0	0	505	511	
13	0	0	0	0	503	513	
14	0	0	0	0	505	514	
15	0	0	0	0	505	513	
0	0	0	0	0	506	511	
1	0	0	0	0	508	510	
2	0	0	0	0	504	511	
3	0	0	0	0	504	509	
4	0	0	0	0	507	512	
5	0	0	0	0	505	512	
6	0	0	0	0	507	512	
7	0	0	0	0	505	512	
8	0	0	0	0	505	511	
9	0	0	0	0	506	512	
10	0	0	0	0	508	513	
11	0	0	0	0	505	512	
12	0	0	0	0	505	511	
13	0	0	0	0	505	511	
14	0	0	0	0	507	513	
15	0	0	0	0	505	512	
0	0	0	0	0	506	512	
1	0	0	0	0	507	511	
2	0	0	0	0	506	509	
3	0	0	0	0	505	511	
4	0	0	0	0	507	512	
5	0	0	0	0	503	512	
6	0	0	0	0	504	511	
7	0	0	0	0	504	512	
8	0	0	0	0	504	512	
9	0	0	0	0	505	512	
10	0	0	0	0	505	511	
11	0	0	0	0	504	512	
12	0	0	0	0	504	511	
13	0	0	0	0	506	510	
14	0	0	0	0	505	513	
15	0	0	0	0	507	512	
0	0	0	0	0	507	511	
1	0	0	0	0	503	511	
2	0	0	0	0	506	512	
3	0	0	0	0	507	511	
4	0	0	0	0	504	511	
5	0	0	0	0	507	513	
6	0	0	0	0	506	512	
7	0	0	0	0	505	512	
8	0	0	0	0	504	512	
9	0	0	0	0	505	512	
10	0	0	0	0	507	514	
11	0	0	0	0	504	512	
12	0	0	0	0	504	511	
13	0	0	0	0	505	510	
14	0	0	0	0	504	511	
15	0	0	0	0	506	512	
0	0	0	0	0	508	511	
1	0	0	0	0	507	512	
2	0	0	0	0	505	513	
3	0	0	0	0	505	513	
4	0	0	0	0	505	512	
5	0	0	0	0	505	513	
6	0	0	0	0	507	514	
7	0	0	0	0	506	514	
8	0	0	0	0	507	511	
9	0	0	0	0	507	513	
10	0	0	0	0	505	513	
11	0	0	0	0	505	511	
12	0	0	0	0	505	509	
13	0	0	0	0	504	509	
14	0	0	0	0	505	511	
15	0	0	0	0	504	512	
0	0	0	0	0	504	513	
1	0	0	0	0	505	512	
2	0	0	0	0	506	510	
3	0	0	0	0	506	511	
4	0	0	0	0	504	511	
5	0	0	0	0	506	513	
6	0	0	0	0	506	513	
7	0	0	0	0	505	513	
8	0	0	0	0	507	513	
9	0	0	0	0	507	511	
10	0	0	0	0	507	511	
11	0	0	0	0	504	511	
12	0	0	0	0	507	512	
13	0	0	0	0	504	510	
14	0	0	0	0	506	512	
15	0	0	0	0	505	511	
0	0	0	0	0	505	509	
1	0	0	0	0	507	511	
2	0	0	0	0	505	513	
3	0	0	0	0	505	514	
4	0	0	0	0	506	513	
5	0	0	0	0	504	512	
6	0	0	0	0	506	515	
7	0	0	0	0	507	513	
8	0	0	0	0	506	513	
9	0	0	0	0	504	512	
10	0	0	0	0	506	510	
11	0	0	0	0	504	511	
12	0	0	0	0	508	510	
13	0	0	0	0	505	510	
14	0	0	0	0	507	513	
15	0	0	0	0	505	511	
0	0	0	0	0	505	512	
1	0	0	0	0	505	512	
2	0	0	0	0	505	512	
3	0	0	0	0	506	515	
4	0	0	0	0	506	513	
5	0	0	0	0	504	512	
6	0	0	0	0	506	511	
7	0	0	0	0	505	511	
8	0	0	0	0	505	512	
9	0	0	0	0	504	512	
10	0	0	0	0	504	513	
11	0	0	0	0	503	512	
12	0	0	0	0	508	511	
13	0	0	0	0	507	512	
14	0	0	0	0	507	513	
15	0	0	0	0	504	510	
0	0	0	0	0	507	512	
1	0	0	0	0	506	513	
2	0	0	0	0	505	510	
3	0	0	0	0	504	512	
4	0	0	0	0	509	512	
5	0	0	0	0	504	512	
6	0	0	0	0	506	511	
7	0	0	0	0	506	509	
8	0	0	0	0	503	513	
9	0	0	0	0	504	511	
10	0	0	0	0	505	509	
11	0	0	0	0	504	511	
12	0	0	0	0	507	512	
13	0	0	0	0	504	513	
14	0	0	0	0	506	511	
15	0	0	0	0	505	510	
0	0	0	0	0	506	512	
1	0	0	0	0	507	512	
2	0	0	0	0	505	513	
3	0	0	0	0	504	513	
4	0	0	0	0	505	513	
5	0	0	0	0	507	512	
6	0	0	0	0	504	509	
7	0	0	0	0	505	509	
8	0	0	0	0	504	511	
9	0	0	0	0	506	510	
10	0	0	0	0	507	512	
11	0	0	0	0	505	511	
12	0	0	0	0	506	511	
13	0	0	0	0	505	511	
14	0	0	0	0	506	513	
15	0	0	0	0	506	510	
0	0	0	0	0	507	515	
1	0	0	0	0	506	513	
2	0	0	0	0	504	512	
3	0	0	0	0	505	511	
4	0	0	0	0	507	512	
5	0	0	0	0	505	512	
6	0	0	0	0	506	512	
7	0	0	0	0	505	513	
8	0	0	0	0	507	511	
9	0	0	0	0	505	513	
10	0	0	0	0	503	513	
11	0	0	0	0	504	511	
12	0	0	0	0	505	511	
13	0	0	0	0	504	513	
14	0	0	0	0	506	509	
15	0	0	0	0	505	512	
0	0	0	0	0	504	511	
1	0	0	0	0	507	513	
2	0	0	0	0	506	512	
3	0	0	0	0	505	512	
4	0	0	0	0	506	510	
5	0	0	0	0	505	511	
6	0	0	0	0	505	511	
7	0	0	0	0	506	510	
8	0	0	0	0	506	511	
9	0	0	0	0	505	511	
10	0	0	0	0	506	512	
11	0	0	0	0	505	513	
12	0	0	0	0	507	512	
13	0	0	0	0	504	512	
14	0	0	0	0	505	511	
15	0	0	0	0	505	512	
0	0	0	0	0	505	511	
1	0	0	0	0	505	512	
2	0	0	0	0	505	512	
3	0	0	0	0	503	512	
4	0	0	0	0	505	513	
5	0	0	0	0	505	511	
6	0	0	0	0	504	512	
7	0	0	0	0	506	511	
8	0	0	0	0	508	513	
9	0	0	0	0	506	512	
10	0	0	0	0	505	511	
11	0	0	0	0	506	512	
12	0	0	0	0	506	512	
13	0	0	0	0	506	510	
14	0	0	0	0	507	511	
15	0	0	0	0	506	513	
0	0	0	0	0	504	512	
1	0	0	0	0	505	510	
2	0	0	0	0	505	512	
3	0	0	0	0	505	513	
4	0	0	0	0	505	510	
5	0	0	0	0	507	510	
6	0	0	0	0	506	513	
7	0	0	0	0	507	510	
8	0	0	0	0	506	510	
9	0	0	0	0	504	511	
10	0	0	0	0	505	513	
11	0	0	0	0	505	512	
12	0	0	0	0	505	512	
13	0	0	0	0	504	513	
14	0	0	0	0	504	512	
15	0	0	0	0	506	514	
0	0	0	0	0	504	511	
1	0	0	0	0	507	510	
2	0	0	0	0	504	514	
3	0	0	0	0	505	512	
4	0	0	0	0	504	512	
5	0	0	0	0	507	512	
6	0	0	0	0	505	511	
7	0	0	0	0	506	511	
8	0	0	0	0	507	511	
9	0	0	0	0	506	512	
10	0	0	0	0	508	512	
11	0	0	0	0	505	509	
12	0	0	0	0	506	512	
13	0	0	0	0	505	513	
14	0	0	0	0	505	511	
15	0	0	0	0	504	511	
0	0	0	0	0	504	511	
1	0	0	0	0	507	513	
2	0	0	0	0	504	514	
3	0	0	0	0	505	511	
4	0	0	0	0	504	511	
5	0	0	0	0	509	511	
6	0	0	0	0	506	512	
7	0	0	0	0	507	509	
8	0	0	0	0	507	512	
9	0	0	0	0	505	512	
10	0	0	0	0	505	512	
11	0	0	0	0	506	511	
12	0	0	0	0	504	512	
13	0	0	0	0	506	511	
14	0	0	0	0	504	512	
15	0	0	0	0	505	512	
0	0	0	0	0	505	512	
1	0	0	0	0	507	512	
2	0	0	0	0	504	511	
3	0	0	0	0	505	510	
4	0	0	0	0	508	513	
5	0	0	0	0	506	513	
6	0	0	0	0	505	512	
7	0	0	0	0	505	512	
8	0	0	0	0	505	512	
9	0	0	0	0	506	512	
10	0	0	0	0	506	511	
11	0	0	0	0	504	511	
12	0	0	0	0	506	512	
13	0	0	0	0	505	512	
14	0	0	0	0	505	513	
15	0	0	0	0	505	512	
0	0	0	0	0	506	510	
1	0	0	0	0	504	511	
2	0	0	0	0	505	512	
3	0	0	0	0	505	512	
4	0	0	0	0	505	513	
5	0	0	0	0	508	513	
6	0	0	0	0	506	512	
7	0	0	0	0	506	511	
8	0	0	0	0	506	511	
9	0	0	0	0	504	510	
10	0	0	0	0	505	512	
11	0	0	0	0	505	511	
12	0	0	0	0	504	512	
13	0	0	0	0	505	511	
14	0	0	0	0	504	511	
15	0	0	0	0	505	510	
0	0	0	0	0	504	511	
1	0	0	0	0	504	512	
2	0	0	0	0	507	512	
3	0	0	0	0	506	511	
4	0	0	0	0	507	512	
5	0	0	0	0	504	512	
6	0	0	0	0	506	512	
7	0	0	0	0	506	513	
8	0	0	0	0	504	512	
9	0	0	0	0	505	511	
10	0	0	0	0	505	512	
11	0	0	0	0	505	512	
12	0	0	0	0	505	513	
13	0	0	0	0	505	510	
14	0	0	0	0	506	510	
15	0	0	0	0	505	510	
0	0	0	0	0	507	513	
1	0	0	0	0	504	511	
2	0	0	0	0	504	511	
3	0	0	0	0	507	511	
4	0	0	0	0	504	512	
5	0	0	0	0	506	513	
6	0	0	0	0	505	512	
7	0	0	0	0	508	513	
8	0	0	0	0	505	512	
9	0	0	0	0	505	511	
10	0	0	0	0	504	511	
11	0	0	0	0	506	513	
12	0	0	0	0	507	514	
13	0	0	0	0	503	512	
14	0	0	0	0	504	511	
15	0	0	0	0	505	511	
0	0	0	0	0	506	512	
1	0	0	0	0	504	511	
2	0	0	0	0	504	511	
3	0	0	0	0	505	513	
4	0	0	0	0	507	513	
5	0	0	0	0	504	513	
6	0	0	0	0	507	514	
7	0	0	0	0	506	512	
8	0	0	0	0	507	508	
9	0	0	0	0	506	512	
10	0	0	0	0	505	513	
11	0	0	0	0	505	512	
12	0	0	0	0	505	513	
13	0	0	0	0	507	512	
14	0	0	0	0	505	513	
15	0	0	0	0	505	510	
0	0	0	0	0	505	511	
1	0	0	0	0	506	512	
2	0	0	0	0	504	512	
3	0	0	0	0	504	512	
4	0	0	0	0	508	514	
5	0	0	0	0	507	513	
6	0	0	0	0	506	513	
7	0	0	0	0	507	511	
8	0	0	0	0	504	513	
9	0	0	0	0	505	511	
10	0	0	0	0	505	512	
11	0	0	0	0	504	513	
12	0	0	0	0	504	511	
13	0	0	0	0	507	512	
14	0	0	0	0	507	512	
15	0	0	0	0	507	511	
0	0	0	0	0	505	512	
1	0	0	0	0	507	513	
2	0	0	0	0	505	510	
3	0	0	0	0	504	512	
4	0	0	0	0	507	511	
5	0	0	0	0	508	510	
6	0	0	0	0	507	511	
7	0	0	0	0	505	513	
8	0	0	0	0	505	512	
9	0	0	0	0	504	513	
10	0	0	0	0	504	513	
11	0	0	0	0	505	513	
12	0	0	0	0	504	511	
13	0	0	0	0	505	512	
14	0	0	0	0	505	512	
15	0	0	0	0	504	511	
0	0	0	0	0	507	512	
1	0	0	0	0	505	512	
2	0	0	0	0	506	512	
3	0	0	0	0	505	512	
4	0	0	0	0	507	513	
5	0	0	0	0	507	510	
6	0	0	0	0	505	512	
7	0	0	0	0	505	514	
8	0	0	0	0	503	512	
9	0	0	0	0	505	510	
10	0	0	0	0	505	512	
11	0	0	0	0	505	511	
12	0	0	0	0	504	511	
13	0	0	0	0	505	512	
14	0	0	0	0	505	511	
15	0	0	0	0	508	512	
0	0	0	0	0	505	511	
1	0	0	0	0	504	513	
2	0	0	0	0	507	512	
3	0	0	0	0	504	515	
4	0	0	0	0	504	513	
5	0	0	0	0	504	512	
6	0	0	0	0	505	512	
7	0	0	0	0	505	511	
8	0	0	0	0	506	512	
9	0	0	0	0	505	510	
10	0	0	0	0	506	512	
11	0	0	0	0	505	513	
12	0	0	0	0	506	512	
13	0	0	0	0	505	510	
14	0	0	0	0	504	510	
15	0	0	0	0	506	511	
0	0	0	0	0	507	512	
1	0	0	0	0	505	513	
2	0	0	0	0	504	511	
3	0	0	0	0	507	512	
4	0	0	0	0	507	511	
5	0	0	0	0	506	511	
6	0	0	0	0	504	513	
7	0	0	0	0	504	514	
8	0	0	0	0	505	511	
9	0	0	0	0	504	510	
10	0	0	0	0	505	513	
11	0	0	0	0	504	514	
12	0	0	0	0	506	510	
13	0	0	0	0	505	511	
14	0	0	0	0	507	512	
15	0	0	0	0	505	511	
0	0	0	0	0	505	515	
1	0	0	0	0	504	512	
2	0	0	0	0	504	510	
3	0	0	0	0	504	512	
4	0	0	0	0	506	511	
5	0	0	0	0	508	510	
6	0	0	0	0	505	512	
7	0	0	0	0	503	511	
8	0	0	0	0	504	510	
9	0	0	0	0	507	514	
10	0	0	0	0	505	513	
11	0	0	0	0	505	512	
12	0	0	0	0	507	511	
13	0	0	0	0	506	511	
14	0	0	0	0	505	512	
15	0	0	0	0	504	512	
0	0	0	0	0	504	511	
1	0	0	0	0	504	511	
2	0	0	0	0	506	512	
3	0	0	0	0	508	511	
4	0	0	0	0	507	514	
5	0	0	0	0	504	513	
6	0	0	0	0	504	512	
7	0	0	0	0	506	511	
8	0	0	0	0	505	513	
9	0	0	0	0	505	510	
10	0	0	0	0	507	511	
11	0	0	0	0	506	513	
12	0	0	0	0	506	511	
13	0	0	0	0	507	512	
14	0	0	0	0	505	512	
15	0	0	0	0	505	509	
0	0	0	0	0	507	513	
1	0	0	0	0	507	512	
2	0	0	0	0	505	512	
3	0	0	0	0	504	512	
4	0	0	0	0	505	509	
5	0	0	0	0	505	511	
6	0	0	0	0	505	512	
7	0	0	0	0	504	511	
8	0	0	0	0	505	511	
9	0	0	0	0	505	512	
10	0	0	0	0	505	511	
11	0	0	0	0	507	511	
12	0	0	0	0	508	513	
13	0	0	0	0	507	511	
14	0	0	0	0	507	512	
15	0	0	0	0	507	511	
0	0	0	0	0	504	510	
1	0	0	0	0	505	512	
2	0	0	0	0	505	511	
3	0	0	0	0	504	512	
4	0	0	0	0	505	512	
5	0	0	0	0	504	512	
6	0	0	0	0	507	512	
7	0	0	0	0	505	511	
8	0	0	0	0	505	511	
9	0	0	0	0	505	513	
10	0	0	0	0	505	511	
11	0	0	0	0	505	512	
12	0	0	0	0	505	511	
13	0	0	0	0	507	512	
14	0	0	0	0	507	512	
15	0	0	0	0	505	510	
0	0	0	0	0	506	513	
1	0	0	0	0	505	512	
2	0	0	0	0	508	511	
3	0	0	0	0	504	513	
4	0	0	0	0	506	512	
5	0	0	0	0	503	512	
6	0	0	0	0	507	515	
7	0	0	0	0	505	513	
8	0	0	0	0	505	513	
9	0	0	0	0	505	511	
10	0	0	0	0	507	512	
11	0	0	0	0	506	513	
12	0	0	0	0	504	512	
13	0	0	0	0	507	511	
14	0	0	0	0	504	512	
15	0	0	0	0	505	511	
0	0	0	0	0	505	514	
1	0	0	0	0	505	512	
2	0	0	0	0	506	512	
3	0	0	0	0	505	510	
4	0	0	0	0	505	511	
5	0	0	0	0	507	511	
6	0	0	0	0	508	512	
7	0	0	0	0	508	510	
8	0	0	0	0	504	511	
9	0	0	0	0	507	513	
10	0	0	0	0	507	513	
11	0	0	0	0	503	514	
12	0	0	0	0	505	511	
13	0	0	0	0	507	513	
14	0	0	0	0	504	511	
15	0	0	0	0	505	513	
0	0	0	0	0	506	511	
1	0	0	0	0	505	513	
2	0	0	0	0	505	512	
3	0	0	0	0	505	511	
4	0	0	0	0	505	512	
5	0	0	0	0	505	512	
6	0	0	0	0	504	512	
7	0	0	0	0	505	511	
8	0	0	0	0	505	512	
9	0	0	0	0	505	513	
10	0	0	0	0	504	510	
11	0	0	0	0	505	513	
12	0	0	0	0	506	511	
13	0	0	0	0	507	512	
14	0	0	0	0	506	514	
15	0	0	0	0	505	509	
0	0	0	0	0	504	513	
1	0	0	0	0	505	512	
2	0	0	0	0	505	512	
3	0	0	0	0	506	511	
4	0	0	0	0	504	512	
5	0	0	0	0	505	511	
6	0	0	0	0	504	512	
7	0	0	0	0	504	510	
8	0	0	0	0	505	511	
9	0	0	0	0	505	510	
10	0	0	0	0	504	511	
11	0	0	0	0	506	512	
12	0	0	0	0	505	512	
13	0	0	0	0	504	514	
14	0	0	0	0	507	513	
15	0	0	0	0	506	512	
0	0	0	0	0	505	512	
1	0	0	0	0	506	510	
2	0	0	0	0	506	513	
3	0	0	0	0	505	511	
4	0	0	0	0	506	513	
5	0	0	0	0	505	512	
6	0	0	0	0	505	512	
7	0	0	0	0	505	512	
8	0	0	0	0	504	510	
9	0	0	0	0	506	510	
10	0	0	0	0	507	512	
11	0	0	0	0	504	512	
12	0	0	0	0	505	513	
13	0	0	0	0	505	512	
14	0	0	0	0	505	513	
15	0	0	0	0	505	511	
0	0	0	0	0	506	511	
1	0	0	0	0	506	513	
2	0	0	0	0	505	512	
3	0	0	0	0	504	509	
4	0	0	0	0	506	512	
5	0	0	0	0	507	511	
6	0	0	0	0	507	512	
7	0	0	0	0	508	511	
8	0	0	0	0	506	512	
9	0	0	0	0	502	512	
10	0	0	0	0	503	512	
11	0	0	0	0	504	512	
12	0	0	0	0	505	513	
13	0	0	0	0	507	512	
14	0	0	0	0	507	511	
15	0	0	0	0	507	511	
0	0	0	0	0	504	512	
1	0	0	0	0	507	513	
2	0	0	0	0	505	512	
3	0	0	0	0	505	512	
4	0	0	0	0	504	511	
5	0	0	0	0	504	511	
6	0	0	0	0	505	512	
7	0	0	0	0	506	514	
8	0	0	0	0	506	512	
9	0	0	0	0	504	512	
10	0	0	0	0	505	512	
11	0	0	0	0	504	511	
12	0	0	0	0	507	513	
13	0	0	0	0	508	512	
14	0	0	0	0	506	512	
15	0	0	0	0	504	512	
0	0	0	0	0	505	512	
1	0	0	0	0	505	510	
2	0	0	0	0	503	510	
3	0	0	0	0	505	512	
4	0	0	0	0	504	510	
5	0	0	0	0	506	510	
6	0	0	0	0	506	511	
7	0	0	0	0	506	511	
8	0	0	0	0	507	511	
9	0	0	0	0	505	512	
10	0	0	0	0	505	511	
11	0	0	0	0	504	513	
12	0	0	0	0	507	515	
13	0	0	0	0	505	512	
14	0	0	0	0	504	512	
15	0	0	0	0	507	511	
0	0	0	0	0	505	511	
1	0	0	0	0	504	511	
2	0	0	0	0	507	513	
3	0	0	0	0	506	512	
4	0	0	0	0	504	512	
5	0	0	0	0	504	511	
6	0	0	0	0	506	512	
7	0	0	0	0	504	513	
8	0	0	0	0	506	511	
9	0	0	0	0	506	512	
10	0	0	0	0	507	513	
11	0	0	0	0	504	512	
12	0	0	0	0	505	513	
13	0	0	0	0	505	512	
14	0	0	0	0	505	511	
15	0	0	0	0	504	511	
0	0	0	0	0	507	510	
1	0	0	0	0	505	513	
2	0	0	0	0	505	514	
3	0	0	0	0	504	510	
4	0	0	0	0	505	512	
5	0	0	0	0	504	510	
6	0	0	0	0	507	512	
7	0	0	0	0	508	512	
8	0	0	0	0	505	512	
9	0	0	0	0	504	511	
10	0	0	0	0	504	512	
11	0	0	0	0	504	513	
12	0	0	0	0	504	511	
13	0	0	0	0	505	512	
14	0	0	0	0	505	512	
15	0	0	0	0	507	513	
0	0	0	0	0	507	513	
1	0	0	0	0	506	511	
2	0	0	0	0	508	512	
3	0	0	0	0	505	512	
4	0	0	0	0	505	513	
5	0	0	0	0	504	512	
6	0	0	0	0	505	510	
7	0	0	0	0	505	511	
8	0	0	0	0	504	511	
9	0	0	0	0	506	512	
10	0	0	0	0	506	511	
11	0	0	0	0	506	514	
12	0	0	0	0	503	511	
13	0	0	0	0	505	513	
14	0	0	0	0	507	512	
15	0	0	0	0	508	511	
0	0	0	0	0	505	512	
1	0	0	0	0	504	511	
2	0	0	0	0	504	511	
3	0	0	0	0	506	510	
4	0	0	0	0	505	513	
5	0	0	0	0	505	512	
6	0	0	0	0	506	512	
7	0	0	0	0	504	513	
8	0	0	0	0	504	513	
9	0	0	0	0	505	512	
10	0	0	0	0	505	508	
11	0	0	0	0	506	511	
12	0	0	0	0	506	513	
13	0	0	0	0	507	510	
14	0	0	0	0	505	511	
15	0	0	0	0	506	512	
0	0	0	0	0	505	513	
1	0	0	0	0	505	512	
2	0	0	0	0	506	513	
3	0	0	0	0	508	515	
4	0	0	0	0	504	512	
5	0	0	0	0	504	512	
6	0	0	0	0	505	512	
7	0	0	0	0	505	512	
8	0	0	0	0	507	511	
9	0	0	0	0	505	511	
10	0	0	0	0	504	513	
11	0	0	0	0	505	512	
12	0	0	0	0	505	512	
13	0	0	0	0	505	511	
14	0	0	0	0	506	510	
15	0	0	0	0	506	510	
0	0	0	0	0	506	511	
1	0	0	0	0	505	514	
2	0	0	0	0	504	513	
3	0	0	0	0	504	511	
4	0	0	0	0	506	512	
5	0	0	0	0	504	511	
6	0	0	0	0	506	511	
7	0	0	0	0	507	512	
8	0	0	0	0	504	512	
9	0	0	0	0	508	511	
10	0	0	0	0	505	512	
11	0	0	0	0	503	512	
12	0	0	0	0	503	511	
13	0	0	0	0	506	511	
14	0	0	0	0	505	511	
15	0	0	0	0	506	513	
0	0	0	0	0	505	512	
1	0	0	0	0	506	511	
2	0	0	0	0	505	512	
3	0	0	0	0	503	511	
4	0	0	0	0	505	511	
5	0	0	0	0	506	511	
6	0	0	0	0	504	512	
7	0	0	0	0	506	512	
8	0	0	0	0	505	509	
9	0	0	0	0	507	513	
10	0	0	0	0	507	509	
11	0	0	0	0	506	511	
12	0	0	0	0	506	512	
13	0	0	0	0	504	513	
14	0	0	0	0	505	512	
15	0	0	0	0	507	513	
0	0	0	0	0	507	513	
1	0	0	0	0	505	512	
2	0	0	0	0	508	512	
3	0	0	0	0	504	512	
4	0	0	0	0	506	512	
5	0	0	0	0	507	512	
6	0	0	0	0	508	512	
7	0	0	0	0	506	512	
8	0	0	0	0	504	511	
9	0	0	0	0	505	513	
10	0	0	0	0	505	513	
11	0	0	0	0	505	514	
12	0	0	0	0	504	511	
13	0	0	0	0	504	511	
14	0	0	0	0	503	511	
15	0	0	0	0	504	513	
0	0	0	0	0	505	513	
1	0	0	0	0	505	510	
2	0	0	0	0	503	510	
3	0	0	0	0	507	510	
4	0	0	0	0	508	512	
5	0	0	0	0	507	512	
6	0	0	0	0	505	513	
7	0	0	0	0	507	512	
8	0	0	0	0	505	513	
9	0	0	0	0	504	511	
10	0	0	0	0	505	512	
11	0	0	0	0	507	511	
12	0	0	0	0	505	512	
13	0	0	0	0	505	510	
14	0	0	0	0	504	513	
15	0	0	0	0	505	513	
0	0	0	0	0	505	511	
1	0	0	0	0	504	513	
2	0	0	0	0	504	513	
3	0	0	0	0	505	513	
4	0	0	0	0	505	513	
5	0	0	0	0	508	509	
6	0	0	0	0	507	512	
7	0	0	0	0	504	509	
8	0	0	0	0	506	511	
9	0	0	0	0	504	511	
10	0	0	0	0	505	512	
11	0	0	0	0	505	511	
12	0	0	0	0	505	513	
13	0	0	0	0	505	512	
14	0	0	0	0	506	513	
15	0	0	0	0	507	513	
0	0	0	0	0	506	511	
1	0	0	0	0	505	512	
2	0	0	0	0	505	511	
3	0	0	0	0	504	512	
4	0	0	0	0	504	512	
5	0	0	0	0	505	511	
6	0	0	0	0	504	510	
7	0	0	0	0	505	511	
8	0	0	0	0	507	511	
9	0	0	0	0	507	512	
10	0	0	0	0	507	513	
11	0	0	0	0	504	511	
12	0	0	0	0	507	512	
13	0	0	0	0	507	512	
14	0	0	0	0	504	512	
15	0	0	0	0	505	513	
0	0	0	0	0	505	512	
1	0	0	0	0	504	511	
2	0	0	0	0	505	514	
3	0	0	0	0	505	513	
4	0	0	0	0	505	511	
5	0	0	0	0	505	514	
6	0	0	0	0	504	513	
7	0	0	0	0	505	512	
8	0	0	0	0	505	511	
9	0	0	0	0	507	510	
10	0	0	0	0	507	512	
11	0	0	0	0	506	512	
12	0	0	0	0	506	511	
13	0	0	0	0	506	511	
14	0	0	0	0	506	510	
15	0	0	0	0	503	511	
0	0	0	0	0	505	511	
1	0	0	0	0	505	515	
2	0	0	0	0	505	512	
3	0	0	0	0	505	510	
4	0	0	0	0	504	512	
5	0	0	0	0	505	513	
6	0	0	0	0	504	511	
7	0	0	0	0	505	512	
8	0	0	0	0	505	511	
9	0	0	0	0	505	511	
10	0	0	0	0	505	512	
11	0	0	0	0	505	511	
12	0	0	0	0	505	509	
13	0	0	0	0	504	511	
14	0	0	0	0	507	513	
15	0	0	0	0	505	511	
0	0	0	0	0	507	513	
1	0	0	0	0	507	513	
2	0	0	0	0	507	513	
3	0	0	0	0	506	512	
4	0	0	0	0	504	511	
5	0	0	0	0	504	512	
6	0	0	0	0	504	512	
7	0	0	0	0	508	510	
8	0	0	0	0	507	510	
9	0	0	0	0	505	512	
10	0	0	0	0	504	512	
11	0	0	0	0	504	511	
12	0	0	0	0	508	510	
13	0	0	0	0	505	511	
14	0	0	0	0	507	513	
15	0	0	0	0	504	512	
0	0	0	0	0	505	510	
1	0	0	0	0	505	513	
2	0	0	0	0	504	512	
3	0	0	0	0	505	510	
4	0	0	0	0	505	513	
5	0	0	0	0	503	513	
6	0	0	0	0	503	511	
7	0	0	0	0	505	510	
8	0	0	0	0	504	512	
9	0	0	0	0	508	512	
10	0	0	0	0	507	511	
11	0	0	0	0	505	513	
12	0	0	0	0	505	512	
13	0	0	0	0	507	514	
14	0	0	0	0	505	513	
15	0	0	0	0	504	511	
0	0	0	0	0	504	511	
1	0	0	0	0	505	513	
2	0	0	0	0	507	512	
3	0	0	0	0	505	512	
4	0	0	0	0	507	513	
5	0	0	0	0	508	511	
6	0	0	0	0	505	511	
7	0	0	0	0	504	511	
8	0	0	0	0	506	511	
9	0	0	0	0	503	512	
10	0	0	0	0	504	512	
11	0	0	0	0	505	512	
12	0	0	0	0	506	513	
13	0	0	0	0	505	511	
14	0	0	0	0	507	510	
15	0	0	0	0	505	510	
0	0	0	0	0	505	509	
1	0	0	0	0	505	511	
2	0	0	0	0	505	513	
3	0	0	0	0	504	511	
4	0	0	0	0	506	513	
5	0	0	0	0	505	513	
6	0	0	0	0	506	510	
7	0	0	0	0	504	513	
8	0	0	0	0	507	511	
9	0	0	0	0	504	510	
10	0	0	0	0	505	511	
11	0	0	0	0	505	514	
12	0	0	0	0	504	514	
13	0	0	0	0	505	510	
14	0	0	0	0	505	512	
15	0	0	0	0	505	513	
0	0	0	0	0	506	513	
1	0	0	0	0	504	511	
2	0	0	0	0	504	513	
3	0	0	0	0	505	513	
4	0	0	0	0	506	511	
5	0	0	0	0	505	510	
6	0	0	0	0	504	514	
7	0	0	0	0	506	512	
8	0	0	0	0	505	513	
9	0	0	0	0	504	511	
10	0	0	0	0	505	512	
11	0	0	0	0	505	511	
12	0	0	0	0	505	511	
13	0	0	0	0	505	510	
14	0	0	0	0	505	512	
15	0	0	0	0	506	512	
0	0	0	0	0	507	512	
1	0	0	0	0	507	511	
2	0	0	0	0	504	510	
3	0	0	0	0	504	512	
4	0	0	0	0	507	515	
5	0	0	0	0	505	513	
6	0	0	0	0	507	511	
7	0	0	0	0	505	512	
8	0	0	0	0	506	510	
9	0	0	0	0	505	510	
10	0	0	0	0	505	515	
11	0	0	0	0	504	511	
12	0	0	0	0	503	513	
13	0	0	0	0	505	511	
14	0	0	0	0	507	511	
15	0	0	0	0	507	511	
0	0	0	0	0	504	512	
1	0	0	0	0	505	512	
2	0	0	0	0	504	512	
3	0	0	0	0	504	511	
4	0	0	0	0	505	512	
5	0	0	0	0	507	512	
6	0	0	0	0	505	511	
7	0	0	0	0	505	512	
8	0	0	0	0	505	512	
9	0	0	0	0	505	512	
10	0	0	0	0	505	511	
11	0	0	0	0	504	512	
12	0	0	0	0	504	512	
13	0	0	0	0	505	512	
14	0	0	0	0	506	512	
15	0	0	0	0	506	513	
0	0	0	0	0	505	512	
1	0	0	0	0	506	512	
2	0	0	0	0	505	513	
3	0	0	0	0	504	512	
4	0	0	0	0	504	512	
5	0	0	0	0	505	511	
6	0	0	0	0	506	511	
7	0	0	0	0	505	513	
8	0	0	0	0	506	512	
9	0	0	0	0	505	511	
10	0	0	0	0	507	510	
11	0	0	0	0	505	511	
12	0	0	0	0	505	513	
13	0	0	0	0	505	511	
14	0	0	0	0	506	514	
15	0	0	0	0	504	509	
0	0	0	0	0	504	511	
1	0	0	0	0	506	511	
2	0	0	0	0	505	513	
3	0	0	0	0	504	512	
4	0	0	0	0	507	511	
5	0	0	0	0	504	510	
6	0	0	0	0	504	512	
7	0	0	0	0	508	511	
8	0	0	0	0	506	513	
9	0	0	0	0	505	512	
10	0	0	0	0	507	513	
11	0	0	0	0	505	511	
12	0	0	0	0	505	512	
13	0	0	0	0	504	512	
14	0	0	0	0	505	510	
15	0	0	0	0	507	511	
0	0	0	0	0	505	511	
1	0	0	0	0	508	513	
2	0	0	0	0	506	513	
3	0	0	0	0	507	511	
4	0	0	0	0	505	512	
5	0	0	0	0	505	513	
6	0	0	0	0	506	512	
7	0	0	0	0	507	512	
8	0	0	0	0	504	511	
9	0	0	0	0	505	512	
10	0	0	0	0	504	510	
11	0	0	0	0	504	510	
12	0	0	0	0	505	511	
13	0	0	0	0	505	511	
14	0	0	0	0	504	511	
15	0	0	0	0	505	512	
0	0	0	0	0	504	513	
1	0	0	0	0	505	511	
2	0	0	0	0	507	513	
3	0	0	0	0	506	513	
4	0	0	0	0	506	512	
5	0	0	0	0	504	513	
6	0	0	0	0	504	513	
7	0	0	0	0	505	512	
8	0	0	0	0	506	512	
9	0	0	0	0	508	511	
10	0	0	0	0	505	510	
11	0	0	0	0	507	511	
12	0	0	0	0	507	511	
13	0	0	0	0	504	512	
14	0	0	0	0	504	513	
15	0	0	0	0	505	510	
0	0	0	0	0	505	512	
1	0	0	0	0	505	511	
2	0	0	0	0	507	512	
3	0	0	0	0	505	512	
4	0	0	0	0	505	513	
5	0	0	0	0	504	511	
6	0	0	0	0	504	511	
7	0	0	0	0	504	511	
8	0	0	0	0	507	511	
9	0	0	0	0	504	514	
10	0	0	0	0	505	514	
11	0	0	0	0	504	511	
12	0	0	0	0	505	513	
13	0	0	0	0	505	512	
14	0	0	0	0	505	511	
15	0	0	0	0	505	511	
0	0	0	0	0	505	510	
1	0	0	0	0	505	511	
2	0	0	0	0	507	511	
3	0	0	0	0	507	512	
4	0	0	0	0	506	511	
5	0	0	0	0	505	512	
6	0	0	0	0	506	512	
7	0	0	0	0	504	512	
8	0	0	0	0	503	514	
9	0	0	0	0	504	513	
10	0	0	0	0	506	512	
11	0	0	0	0	505	512	
12	0	0	0	0	506	512	
13	0	0	0	0	505	514	
14	0	0	0	0	505	513	
15	0	0	0	0	506	511	
0	0	0	0	0	506	510	
1	0	0	0	0	506	511	
2	0	0	0	0	507	513	
3	0	0	0	0	505	512	
4	0	0	0	0	504	512	
5	0	0	0	0	506	512	
6	0	0	0	0	507	513	
7	0	0	0	0	508	512	
8	0	0	0	0	507	511	
9	0	0	0	0	505	511	
10	0	0	0	0	504	511	
11	0	0	0	0	506	510	
12	0	0	0	0	504	512	
13	0	0	0	0	504	513	
14	0	0	0	0	505	513	
15	0	0	0	0	505	513	
0	0	0	0	0	505	511	
1	0	0	0	0	507	511	
2	0	0	0	0	506	509	
3	0	0	0	0	505	512	
4	0	0	0	0	506	513	
5	0	0	0	0	508	513	
6	0	0	0	0	507	512	
7	0	0	0	0	504	513	
8	0	0	0	0	504	513	
9	0	0	0	0	506	515	
10	0	0	0	0	504	513	
11	0	0	0	0	504	511	
12	0	0	0	0	505	511	
13	0	0	0	0	506	511	
14	0	0	0	0	508	510	
15	0	0	0	0	505	511	
0	0	0	0	0	507	512	
1	0	0	0	0	506	512	
2	0	0	0	0	505	513	
3	0	0	0	0	504	512	
4	0	0	0	0	505	513	
5	0	0	0	0	505	511	
6	0	0	0	0	507	513	
7	0	0	0	0	505	511	
8	0	0	0	0	505	512	
9	0	0	0	0	505	512	
10	0	0	0	0	506	512	
11	0	0	0	0	504	511	
12	0	0	0	0	504	512	
13	0	0	0	0	503	510	
14	0	0	0	0	505	513	
15	0	0	0	0	507	512	
0	0	0	0	0	506	513	
1	0	0	0	0	506	511	
2	0	0	0	0	505	511	
3	0	0	0	0	505	510	
4	0	0	0	0	505	512	
5	0	0	0	0	504	511	
6	0	0	0	0	504	513	
7	0	0	0	0	508	513	
8	0	0	0	0	506	511	
9	0	0	0	0	507	513	
10	0	0	0	0	507	511	
11	0	0	0	0	505	513	
12	0	0	0	0	506	512	
13	0	0	0	0	505	511	
14	0	0	0	0	506	511	
15	0	0	0	0	507	513	
0	0	0	0	0	507	512	
1	0	0	0	0	506	511	
2	0	0	0	0	505	513	
3	0	0	0	0	504	511	
4	0	0	0	0	505	511	
5	0	0	0	0	507	513	
6	0	0	0	0	506	512	
7	0	0	0	0	505	511	
8	0	0	0	0	504	512	
9	0	0	0	0	504	511	
10	0	0	0	0	507	512	
11	0	0	0	0	506	513	
12	0	0	0	0	505	512	
13	0	0	0	0	505	511	
14	0	0	0	0	502	512	
15	0	0	0	0	504	511	
0	0	0	0	0	505	512	
1	0	0	0	0	505	513	
2	0	0	0	0	505	511	
3	0	0	0	0	505	511	
4	0	0	0	0	506	513	
5	0	0	0	0	505	511	
6	0	0	0	0	506	511	
7	0	0	0	0	502	511	
8	0	0	0	0	507	510	
9	0	0	0	0	507	511	
10	0	0	0	0	504	512	
11	0	0	0	0	508	511	
12	0	0	0	0	507	514	
13	0	0	0	0	505	512	
14	0	0	0	0	505	512	
15	0	0	0	0	505	513	
0	0	0	0	0	505	512	
1	0	0	0	0	506	511	
2	0	0	0	0	505	512	
3	0	0	0	0	505	510	
4	0	0	0	0	504	512	
5	0	0	0	0	506	514	
6	0	0	0	0	506	511	
7	0	0	0	0	507	511	
8	0	0	0	0	505	512	
9	0	0	0	0	505	511	
10	0	0	0	0	505	510	
11	0	0	0	0	505	512	
12	0	0	0	0	506	513	
13	0	0	0	0	507	513	
14	0	0	0	0	505	513	
15	0	0	0	0	506	513	
0	0	0	0	0	504	511	
1	0	0	0	0	505	512	
2	0	0	0	0	506	510	
3	0	0	0	0	506	511	
4	0	0	0	0	506	510	
5	0	0	0	0	505	511	
6	0	0	0	0	504	511	
7	0	0	0	0	507	510	
8	0	0	0	0	504	513	
9	0	0	0	0	507	512	
10	0	0	0	0	506	511	
11	0	0	0	0	504	510	
12	0	0	0	0	505	513	
13	0	0	0	0	504	514	
14	0	0	0	0	507	512	
15	0	0	0	0	507	510	
0	0	0	0	0	504	513	
1	0	0	0	0	505	512	
2	0	0	0	0	505	511	
3	0	0	0	0	505	510	
4	0	0	0	0	504	512	
5	0	0	0	0	504	512	
6	0	0	0	0	506	510	
7	0	0	0	0	505	511	
8	0	0	0	0	504	512	
9	0	0	0	0	505	512	
10	0	0	0	0	506	511	
11	0	0	0	0	506	510	
12	0	0	0	0	508	513	
13	0	0	0	0	507	511	
14	0	0	0	0	507	511	
15	0	0	0	0	505	512	
0	0	0	0	0	506	512	
1	0	0	0	0	504	513	
2	0	0	0	0	506	511	
3	0	0	0	0	502	512	
4	0	0	0	0	504	512	
5	0	0	0	0	504	511	
6	0	0	0	0	504	511	
7	0	0	0	0	507	512	
8	0	0	0	0	505	513	
9	0	0	0	0	506	512	
10	0	0	0	0	506	512	
11	0	0	0	0	507	513	
12	0	0	0	0	505	513	
13	0	0	0	0	504	512	
14	0	0	0	0	507	511	
15	0	0	0	0	504	511	
0	0	0	0	0	504	511	
1	0	0	0	0	505	514	
2	0	0	0	0	505	511	
3	0	0	0	0	504	509	
4	0	0	0	0	504	512	
5	0	0	0	0	506	512	
6	0	0	0	0	505	509	
7	0	0	0	0	505	511	
8	0	0	0	0	506	511	
9	0	0	0	0	505	512	
10	0	0	0	0	505	511	
11	0	0	0	0	505	511	
12	0	0	0	0	505	513	
13	0	0	0	0	506	513	
14	0	0	0	0	506	511	
15	0	0	0	0	506	511	
0	0	0	0	0	504	512	
1	0	0	0	0	505	513	
2	0	0	0	0	507	511	
3	0	0	0	0	505	513	
4	0	0	0	0	505	511	
5	0	0	0	0	506	511	
6	0	0	0	0	504	511	
7	0	0	0	0	504	512	
8	0	0	0	0	506	511	
9	0	0	0	0	505	512	
10	0	0	0	0	505	511	
11	0	0	0	0	505	511	
12	0	0	0	0	504	513	
13	0	0	0	0	505	513	
14	0	0	0	0	505	512	
15	0	0	0	0	506	511	
0	0	0	0	0	507	512	
1	0	0	0	0	504	512	
2	0	0	0	0	505	513	
3	0	0	0	0	506	511	
4	0	0	0	0	507	513	
5	0	0	0	0	504	510	
6	0	0	0	0	503	514	
7	0	0	0	0	504	510	
8	0	0	0	0	505	513	
9	0	0	0	0	506	512	
10	0	0	0	0	506	513	
11	0	0	0	0	507	511	
12	0	0	0	0	505	512	
13	0	0	0	0	505	512	
14	0	0	0	0	504	511	
15	0	0	0	0	505	511	
0	0	0	0	0	505	512	
1	0	0	0	0	504	512	
2	0	0	0	0	504	513	
3	0	0	0	0	508	512	
4	0	0	0	0	504	511	
5	0	0	0	0	503	510	
6	0	0	0	0	505	511	
7	0	0	0	0	507	512	
8	0	0	0	0	507	513	
9	0	0	0	0	507	513	
10	0	0	0	0	505	512	
11	0	0	0	0	507	511	
12	0	0	0	0	504	511	
13	0	0	0	0	508	511	
14	0	0	0	0	505	511	
15	0	0	0	0	505	510	
0	0	0	0	0	504	511	
1	0	0	0	0	505	512	
2	0	0	0	0	506	511	
3	0	0	0	0	505	511	
4	0	0	0	0	506	511	
5	0	0	0	0	504	514	
6	0	0	0	0	505	512	
7	0	0	0	0	507	514	
8	0	0	0	0	505	512	
9	0	0	0	0	505	512	
10	0	0	0	0	506	512	
11	0	0	0	0	504	512	
12	0	0	0	0	507	514	
13	0	0	0	0	507	513	
14	0	0	0	0	505	515	
15	0	0	0	0	506	512	
0	0	0	0	0	505	511	
1	0	0	0	0	505	513	
2	0	0	0	0	504	511	
3	0	0	0	0	504	510	
4	0	0	0	0	504	510	
5	0	0	0	0	505	511	
6	0	0	0	0	507	512	
7	0	0	0	0	507	513	
8	0	0	0	0	504	511	
9	0	0	0	0	505	511	
10	0	0	0	0	505	511	
11	0	0	0	0	504	513	
12	0	0	0	0	504	511	
13	0	0	0	0	504	513	
14	0	0	0	0	505	511	
15	0	0	0	0	507	510	
0	0	0	0	0	507	512	
1	0	0	0	0	505	512	
2	0	0	0	0	505	511	
3	0	0	0	0	505	511	
4	0	0	0	0	504	512	
5	0	0	0	0	506	510	
6	0	0	0	0	504	512	
7	0	0	0	0	507	510	
8	0	0	0	0	505	510	
9	0	0	0	0	507	511	
10	0	0	0	0	506	512	
11	0	0	0	0	506	513	
12	0	0	0	0	506	511	
13	0	0	0	0	504	511	
14	0	0	0	0	506	513	
15	0	0	0	0	506	513	
0	0	0	0	0	507	513	
1	0	0	0	0	505	511	
2	0	0	0	0	504	514	
3	0	0	0	0	505	513	
4	0	0	0	0	504	510	
5	0	0	0	0	505	512	
6	0	0	0	0	505	511	
7	0	0	0	0	506	510	
8	0	0	0	0	504	514	
9	0	0	0	0	506	512	
10	0	0	0	0	505	511	
11	0	0	0	0	505	512	
12	0	0	0	0	505	513	
13	0	0	0	0	505	514	
14	0	0	0	0	507	512	
15	0	0	0	0	507	513	
0	0	0	0	0	504	512	
1	0	0	0	0	505	509	
2	0	0	0	0	507	511	
3	0	0	0	0	506	511	
4	0	0	0	0	505	511	
5	0	0	0	0	505	512	
6	0	0	0	0	504	510	
7	0	0	0	0	505	511	
8	0	0	0	0	507	513	
9	0	0	0	0	505	512	
10	0	0	0	0	504	513	
11	0	0	0	0	504	513	
12	0	0	0	0	506	514	
13	0	0	0	0	504	512	
14	0	0	0	0	508	512	
15	0	0	0	0	505	513	
0	0	0	0	0	505	510	
1	0	0	0	0	505	511	
2	0	0	0	0	505	512	
3	0	0	0	0	505	512	
4	0	0	0	0	507	511	
5	0	0	0	0	506	512	
6	0	0	0	0	505	510	
7	0	0	0	0	507	514	
8	0	0	0	0	505	512	
9	0	0	0	0	505	511	
10	0	0	0	0	504	511	
11	0	0	0	0	505	511	
12	0	0	0	0	505	510	
13	0	0	0	0	504	512	
14	0	0	0	0	507	510	
15	0	0	0	0	506	512	
0	0	0	0	0	507	511	
1	0	0	0	0	508	511	
2	0	0	0	0	504	513	
3	0	0	0	0	504	511	
4	0	0	0	0	505	512	
5	0	0	0	0	505	513	
6	0	0	0	0	507	513	
7	0	0	0	0	505	509	
8	0	0	0	0	507	512	
9	0	0	0	0	505	512	
10	0	0	0	0	505	512	
11	0	0	0	0	505	514	
12	0	0	0	0	504	512	
13	0	0	0	0	506	515	
14	0	0	0	0	505	512	
15	0	0	0	0	503	512	
0	0	0	0	0	504	511	
1	0	0	0	0	505	511	
2	0	0	0	0	505	512	
3	0	0	0	0	507	512	
4	0	0	0	0	506	511	
5	0	0	0	0	505	511	
6	0	0	0	0	505	512	
7	0	0	0	0	505	511	
8	0	0	0	0	506	513	
9	0	0	0	0	505	511	
10	0	0	0	0	505	511	
11	0	0	0	0	505	512	
12	0	0	0	0	505	511	
13	0	0	0	0	504	509	
14	0	0	0	0	504	512	
15	0	0	0	0	505	512	
0	0	0	0	0	504	512	
1	0	0	0	0	506	515	
2	0	0	0	0	505	515	
3	0	0	0	0	505	512	
4	0	0	0	0	504	511	
5	0	0	0	0	506	509	
6	0	0	0	0	507	513	
7	0	0	0	0	508	512	
8	0	0	0	0	505	512	
9	0	0	0	0	506	511	
10	0	0	0	0	507	511	
11	0	0	0	0	507	511	
12	0	0	0	0	507	512	
13	0	0	0	0	504	511	
14	0	0	0	0	505	512	
15	0	0	0	0	504	512	
0	0	0	0	0	504	511	
1	0	0	0	0	505	510	
2	0	0	0	0	504	511	
3	0	0	0	0	505	512	
4	0	0	0	0	505	513	
5	0	0	0	0	505	512	
6	0	0	0	0	507	511	
7	0	0	0	0	505	510	
8	0	0	0	0	506	512	
9	0	0	0	0	506	512	
10	0	0	0	0	505	511	
11	0	0	0	0	507	513	
12	0	0	0	0	506	513	
13	0	0	0	0	507	512	
14	0	0	0	0	505	510	
15	0	0	0	0	506	512	
0	0	0	0	0	504	515	
1	0	0	0	0	504	512	
2	0	0	0	0	505	513	
3	0	0	0	0	505	512	
4	0	0	0	0	506	511	
5	0	0	0	0	506	511	
6	0	0	0	0	508	510	
7	0	0	0	0	507	512	
8	0	0	0	0	505	512	
9	0	0	0	0	504	511	
10	0	0	0	0	506	508	
11	0	0	0	0	504	510	
12	0	0	0	0	507	513	
13	0	0	0	0	507	508	
14	0	0	0	0	505	512	
15	0	0	0	0	505	511	
0	0	0	0	0	505	517	
1	0	0	0	0	507	516	
2	0	0	0	0	505	511	
3	0	0	0	0	505	511	
4	0	0	0	0	505	513	
5	0	0	0	0	504	512	
6	0	0	0	0	504	511	
7	0	0	0	0	504	511	
8	0	0	0	0	505	511	
9	0	0	0	0	507	513	
10	0	0	0	0	506	513	
11	0	0	0	0	505	513	
12	0	0	0	0	505	512	
13	0	0	0	0	505	513	
14	0	0	0	0	505	512	
15	0	0	0	0	505	511	
0	0	0	0	0	503	511	
1	0	0	0	0	505	513	
2	0	0	0	0	505	511	
3	0	0	0	0	504	514	
4	0	0	0	0	507	512	
5	0	0	0	0	508	511	
6	0	0	0	0	505	511	
7	0	0	0	0	505	512	
8	0	0	0	0	505	512	
9	0	0	0	0	505	511	
10	0	0	0	0	506	511	
11	0	0	0	0	506	513	
12	0	0	0	0	507	512	
13	0	0	0	0	503	514	
14	0	0	0	0	505	512	
15	0	0	0	0	504	513	
0	0	0	0	0	505	512	
1	0	0	0	0	505	508	
2	0	0	0	0	506	511	
3	0	0	0	0	505	510	
4	0	0	0	0	503	509	
5	0	0	0	0	504	510	
6	0	0	0	0	504	509	
7	0	0	0	0	504	512	
8	0	0	0	0	506	512	
9	0	0	0	0	508	511	
10	0	0	0	0	511	511	
11	0	0	0	0	509	512	
12	0	0	0	0	510	511	
13	0	0	0	0	505	512	
14	0	0	0	0	502	511	
15	0	0	0	0	504	510	
0	0	0	0	0	505	512	
1	0	0	0	0	506	512	
2	0	0	0	0	504	512	
3	0	0	0	0	503	512	
4	0	0	0	0	504	511	
5	0	0	0	0	504	513	
6	0	0	0	0	505	513	
7	0	0	0	0	508	513	
8	0	0	0	0	506	514	
9	0	0	0	0	507	514	
10	0	0	0	0	508	512	
11	0	0	0	0	506	512	
12	0	0	0	0	506	511	
13	0	0	0	0	510	513	
14	0	0	0	0	509	514	
15	0	0	0	0	507	512	
0	0	0	0	0	504	510	
1	0	0	0	0	499	511	
2	0	0	0	0	498	512	
3	0	0	0	0	500	510	
4	0	0	0	0	503	512	
5	0	0	0	0	504	512	
6	0	0	0	0	505	513	
7	0	0	0	0	509	515	
8	0	0	0	0	511	513	
9	0	0	0	0	516	512	
10	0	0	0	0	517	512	
11	0	0	0	0	513	512	
12	0	0	0	0	508	512	
13	0	0	0	0	506	512	
14	0	0	0	0	503	510	
15	0	0	0	0	498	508	
0	0	0	0	0	497	508	
1	0	0	0	0	499	509	
2	0	0	0	0	500	512	
3	0	0	0	0	507	512	
4	0	0	0	0	511	511	
5	0	0	0	0	512	511	
6	0	0	0	0	510	511	
7	0	0	0	0	504	511	
8	0	0	0	0	500	511	
9	0	0	0	0	499	510	
10	0	0	0	0	499	513	
11	0	0	0	0	499	511	
12	0	0	0	0	501	515	
13	0	0	0	0	505	514	
14	0	0	0	0	505	513	
15	0	0	0	0	509	511	
0	0	0	0	0	508	512	
1	0	0	0	0	508	514	
2	0	0	0	0	508	513	
3	0	0	0	0	505	512	
4	0	0	0	0	507	512	
5	0	0	0	0	510	512	
6	0	0	0	0	510	512	
7	0	0	0	0	511	511	
8	0	0	0	0	512	513	
9	0	0	0	0	507	512	
10	0	0	0	0	508	513	
11	0	0	0	0	504	513	
12	0	0	0	0	501	511	
13	0	0	0	0	502	513	
14	0	0	0	0	501	512	
15	0	0	0	0	502	513	
0	0	0	0	0	500	513	
1	0	0	0	0	503	513	
2	0	0	0	0	499	511	
3	0	0	0	0	499	511	
4	0	0	0	0	504	511	
5	0	0	0	0	505	512	
6	0	0	0	0	506	513	
7	0	0	0	0	504	512	
8	0	0	0	0	505	512	
9	0	0	0	0	503	509	
10	0	0	0	0	504	512	
11	0	0	0	0	504	512	
12	0	0	0	0	504	513	
13	0	0	0	0	505	510	
14	0	0	0	0	508	512	
15	0	0	0	0	508	514	
0	0	0	0	0	506	515	
1	0	0	0	0	507	510	
2	0	0	0	0	504	513	
3	0	0	0	0	505	511	
4	0	0	0	0	507	512	
5	0	0	0	0	508	513	
6	0	0	0	0	505	510	
7	0	0	0	0	505	508	
8	0	0	0	0	509	510	
9	0	0	0	0	505	511	
10	0	0	0	0	506	512	
11	0	0	0	0	503	513	
12	0	0	0	0	503	510	
13	0	0	0	0	504	512	
14	0	0	0	0	503	511	
15	0	0	0	0	504	511	
0	0	0	0	0	507	511	
1	0	0	0	0	508	514	
2	0	0	0	0	507	513	
3	0	0	0	0	507	512	
4	0	0	0	0	503	513	
5	0	0	0	0	504	512	
6	0	0	0	0	504	510	
7	0	0	0	0	504	512	
8	0	0	0	0	506	510	
9	0	0	0	0	507	512	
10	0	0	0	0	506	512	
11	0	0	0	0	506	509	
12	0	0	0	0	507	512	
13	0	0	0	0	505	512	
14	0	0	0	0	502	511	
15	0	0	0	0	504	513	
0	0	0	0	0	507	513	
1	0	0	0	0	508	512	
2	0	0	0	0	507	512	
3	0	0	0	0	508	510	
4	0	0	0	0	505	512	
5	0	0	0	0	504	511	
6	0	0	0	0	506	512	
7	0	0	0	0	504	511	
8	0	0	0	0	503	511	
9	0	0	0	0	504	513	
10	0	0	0	0	505	512	
11	0	0	0	0	505	512	
12	0	0	0	0	505	512	
13	0	0	0	0	506	512	
14	0	0	0	0	505	510	
15	0	0	0	0	505	512	
0	0	0	0	0	504	512	
1	0	0	0	0	508	511	
2	0	0	0	0	506	513	
3	0	0	0	0	508	512	
4	0	0	0	0	508	513	
5	0	0	0	0	507	514	
6	0	0	0	0	502	510	
7	0	0	0	0	503	511	
8	0	0	0	0	504	511	
9	0	0	0	0	508	511	
10	0	0	0	0	509	512	
11	0	0	0	0	505	511	
12	0	0	0	0	504	513	
13	0	0	0	0	503	512	
14	0	0	0	0	503	509	
15	0	0	0	0	507	510	
0	0	0	0	0	508	513	
1	0	0	0	0	509	514	
2	0	0	0	0	507	513	
3	0	0	0	0	505	513	
4	0	0	0	0	506	511	
5	0	0	0	0	504	514	
6	0	0	0	0	505	512	
7	0	0	0	0	505	513	
8	0	0	0	0	506	513	
9	0	0	0	0	507	512	
10	0	0	0	0	503	511	
11	0	0	0	0	501	508	
12	0	0	0	0	508	510	
13	0	0	0	0	512	511	
14	0	0	0	0	511	511	
15	0	0	0	0	508	510	
0	0	0	0	0	506	511	
1	0	0	0	0	508	514	
2	0	0	0	0	502	512	
3	0	0	0	0	503	513	
4	0	0	0	0	505	512	
5	0	0	0	0	505	513	
6	0	0	0	0	505	513	
7	0	0	0	0	507	513	
8	0	0	0	0	504	513	
9	0	0	0	0	502	512	
10	0	0	0	0	510	508	
11	0	0	0	0	514	508	
12	0	0	0	0	510	511	
13	0	0	0	0	506	511	
14	0	0	0	0	507	510	
15	0	0	0	0	505	510	
0	0	0	0	0	502	512	
1	0	0	0	0	497	512	
2	0	0	0	0	499	512	
3	0	0	0	0	496	515	
4	0	0	0	0	492	513	
5	0	0	0	0	497	511	
6	0	0	0	0	502	510	
7	0	0	0	0	506	512	
8	0	0	0	0	505	512	
9	0	0	0	0	509	513	
10	0	0	0	0	510	511	
11	0	0	0	0	509	512	
12	0	0	0	0	504	513	
13	0	0	0	0	504	514	
14	0	0	0	0	507	511	
15	0	0	0	0	508	511	
0	0	0	0	0	504	511	
1	0	0	0	0	504	512	
2	0	0	0	0	507	513	
3	0	0	0	0	511	515	
4	0	0	0	0	510	511	
5	0	0	0	0	507	511	
6	0	0	0	0	509	509	
7	0	0	0	0	510	511	
8	0	0	0	0	507	511	
9	0	0	0	0	505	510	
10	0	0	0	0	504	514	
11	0	0	0	0	505	513	
12	0	0	0	0	504	514	
13	0	0	0	0	505	512	
14	0	0	0	0	508	514	
15	0	0	0	0	507	511	
0	0	0	0	0	505	510	
1	0	0	0	0	500	511	
2	0	0	0	0	502	514	
3	0	0	0	0	503	511	
4	0	0	0	0	502	511	
5	0	0	0	0	502	513	
6	0	0	0	0	504	513	
7	0	0	0	0	510	512	
8	0	0	0	0	508	512	
9	0	0	0	0	502	512	
10	0	0	0	0	507	510	
11	0	0	0	0	511	512	
12	0	0	0	0	508	513	
13	0	0	0	0	508	509	
14	0	0	0	0	507	510	
15	0	0	0	0	513	510	
0	0	0	0	0	505	511	
1	0	0	0	0	504	512	
2	0	0	0	0	504	513	
3	0	0	0	0	503	511	
4	0	0	0	0	504	512	
5	0	0	0	0	503	512	
6	0	0	0	0	507	510	
7	0	0	0	0	511	510	
8	0	0	0	0	503	509	
9	0	0	0	0	502	511	
10	0	0	0	0	503	512	
11	0	0	0	0	501	511	
12	0	0	0	0	504	510	
13	0	0	0	0	505	512	
14	0	0	0	0	506	513	
15	0	0	0	0	507	515	
0	0	0	0	0	512	510	
1	0	0	0	0	515	512	
2	0	0	0	0	515	512	
3	0	0	0	0	504	512	
4	0	0	0	0	501	513	
5	0	0	0	0	508	513	
6	0	0	0	0	506	513	
7	0	0	0	0	502	511	
8	0	0	0	0	499	510	
9	0	0	0	0	497	510	
10	0	0	0	0	491	512	
11	0	0	0	0	492	513	
12	0	0	0	0	501	512	
13	0	0	0	0	505	514	
14	0	0	0	0	507	511	
15	0	0	0	0	507	511	
0	0	0	0	0	511	511	
1	0	0	0	0	512	511	
2	0	0	0	0	508	511	
3	0	0	0	0	507	510	
4	0	0	0	0	504	512	
5	0	0	0	0	504	511	
6	0	0	0	0	505	513	
7	0	0	0	0	506	516	
8	0	0	0	0	504	512	
9	0	0	0	0	503	512	
10	0	0	0	0	504	512	
11	0	0	0	0	504	511	
12	0	0	0	0	507	515	
13	0	0	0	0	509	512	
14	0	0	0	0	511	514	
15	0	0	0	0	511	513	
0	0	0	0	0	510	511	
1	0	0	0	0	508	508	
2	0	0	0	0	504	512	
3	0	0	0	0	508	507	
4	0	0	0	0	513	511	
5	0	0	0	0	504	509	
6	0	0	0	0	503	512	
7	0	0	0	0	506	511	
8	0	0	0	0	507	515	
9	0	0	0	0	508	512	
10	0	0	0	0	507	510	
11	0	0	0	0	504	514	
12	0	0	0	0	502	513	
13	0	0	0	0	500	511	
14	0	0	0	0	502	513	
15	0	0	0	0	501	513	
0	0	0	0	0	504	510	
1	0	0	0	0	502	512	
2	0	0	0	0	501	510	
3	0	0	0	0	508	511	
4	0	0	0	0	514	511	
5	0	0	0	0	511	512	
6	0	0	0	0	508	511	
7	0	0	0	0	503	510	
8	0	0	0	0	502	514	
9	0	0	0	0	507	512	
10	0	0	0	0	509	513	
11	0	0	0	0	508	509	
12	0	0	0	0	503	508	
13	0	0	0	0	502	510	
14	0	0	0	0	504	511	
15	0	0	0	0	505	511	
0	0	0	0	0	504	511	
1	0	0	0	0	504	513	
2	0	0	0	0	504	515	
3	0	0	0	0	504	513	
4	0	0	0	0	506	511	
5	0	0	0	0	509	513	
6	0	0	0	0	509	511	
7	0	0	0	0	516	512	
8	0	0	0	0	516	512	
9	0	0	0	0	511	514	
10	0	0	0	0	499	512	
11	0	0	0	0	495	513	
12	0	0	0	0	497	515	
13	0	0	0	0	499	514	
14	0	0	0	0	501	514	
15	0	0	0	0	507	514	
0	0	0	0	0	505	513	
1	0	0	0	0	503	511	
2	0	0	0	0	499	509	
3	0	0	0	0	506	507	
4	0	0	0	0	511	511	
5	0	0	0	0	507	509	
6	0	0	0	0	500	511	
7	0	0	0	0	501	511	
8	0	0	0	0	503	511	
9	0	0	0	0	508	513	
10	0	0	0	0	505	513	
11	0	0	0	0	507	513	
12	0	0	0	0	513	512	
13	0	0	0	0	509	513	
14	0	0	0	0	501	510	
15	0	0	0	0	505	511	
0	0	0	0	0	508	513	
1	0	0	0	0	507	513	
2	0	0	0	0	502	512	
3	0	0	0	0	494	512	
